timestamp,emg1,emg2,emg3,emg4,emg5,emg6,emg7,emg8
395801246829,-7,-5,2,-3,-2,0,-2,-8
395801246829,-6,0,5,-3,-4,0,-2,-6
395801247650,4,4,-9,1,1,-1,-1,3
395801247650,4,-1,-9,-3,0,1,0,3
395801248354,-1,-2,0,-1,0,0,0,-2
395801248354,-4,1,11,2,0,0,-2,-6
395801249129,2,8,2,3,1,1,-1,2
395801249129,4,-8,-7,-1,-1,0,0,2
395801259865,-3,-9,-3,-2,-1,-1,-1,-2
395801259865,-8,-6,2,-2,-3,-3,-2,-6
395801268684,0,10,0,0,1,-2,-1,0
395801268684,4,2,-5,2,0,0,-1,3
395801276294,-1,-2,0,-2,-2,-3,0,0
395801276294,-4,-3,1,-5,-2,-3,0,-4
395801290996,2,-6,-10,3,0,0,1,5
395801290996,-1,6,17,5,2,1,-1,-1
395801298483,1,1,0,-4,-2,1,0,0
395801298483,-7,-8,5,1,-2,-1,-2,-3
395801304852,0,2,-6,-6,-2,-2,-3,0
395801304852,0,1,-8,-1,-2,-2,-2,0
395801319908,-4,-1,5,-1,-1,0,-2,-4
395801319908,0,2,0,-2,-1,1,0,0
395801328500,-1,-6,-1,-1,-1,-2,-1,-2
395801328500,8,-5,-6,-1,1,0,0,2
395801367945,-8,-5,-2,-11,-5,0,-2,-6
395801367945,-7,0,26,9,2,-1,-1,-5
395801368932,4,5,-12,0,1,0,0,6
395801368932,7,7,-3,2,0,-1,-1,1
395801369595,-6,-4,7,-3,-2,0,-1,-4
395801369595,-6,0,-2,-8,-4,-1,-1,-5
395801372863,0,1,-6,-2,-1,-1,-1,1
395801372863,1,1,-10,0,1,-1,1,2
395801379709,-2,-2,1,2,0,-1,-2,-4
395801379709,-5,-3,2,-4,-4,-4,-2,-5
395801387273,3,0,-5,4,-2,-3,-1,2
395801387273,5,-1,-7,-2,0,0,2,7
395801396018,-2,4,-6,-3,-1,-1,0,-4
395801396018,-3,-9,15,-1,0,0,1,-4
395801410366,-2,-4,-3,-2,-1,-1,-1,-1
395801410366,2,0,-4,0,-1,0,-2,2
395801417206,-4,-9,0,-1,-3,-1,-2,-5
395801417206,-2,0,-4,-4,-1,-1,-3,-2
395801424735,3,-1,-1,0,-1,-2,0,2
395801424735,-2,-4,-3,-1,-1,0,-4,-3
395801439650,-1,4,10,7,1,0,0,-3
395801439650,-1,0,-13,-4,-3,-3,-1,-2
395801447160,1,1,15,2,3,1,-1,0
395801447160,0,4,-1,-1,-1,-2,0,1
395801456062,-2,-8,-1,-2,-3,-1,-3,-3
395801456062,-4,1,-5,-2,-2,-3,-2,-4
395801470200,-2,1,-6,-4,-2,-1,0,-1
395801470200,0,-8,-5,0,0,-1,-1,-1
395801477151,6,6,2,-2,-2,-2,0,0
395801477151,1,-1,0,-1,2,2,0,-1
395801484605,3,-2,-8,0,2,0,1,1
395801484605,-2,4,0,-2,0,2,1,-2
395801499655,-3,-3,-1,-2,-2,0,-1,-3
395801499655,-1,-4,-2,1,-2,-1,-1,-2
395801507014,3,10,1,0,-2,-2,-1,1
395801507014,1,-7,-6,0,-4,-1,0,0
395801516159,-5,-7,-5,-4,3,0,-3,-1
395801516159,1,1,2,-2,-3,-1,-1,1
395801530196,-2,-7,-6,-1,-2,-1,-1,-1
395801530196,0,0,4,1,-1,-2,0,1
395801537106,-3,3,-2,-3,-3,-1,0,-2
395801537106,-2,-3,-4,0,0,0,-1,-1
395801552943,2,-1,-1,2,0,0,-1,1
395801552943,-4,0,-8,-4,1,-2,-4,-5
395801559639,-2,7,20,4,0,0,-1,0
395801559639,-1,-14,2,3,2,0,0,0
395801567135,-2,13,-1,0,-2,-1,0,0
395801567135,-4,-3,-5,-3,-1,-1,-1,1
395801576091,-3,-12,-5,-3,-1,-2,0,-3
395801576091,-1,7,2,-3,-1,0,1,-1
395801590237,0,-8,-1,-2,-2,-1,-2,0
395801590237,-2,-2,-3,-2,-2,0,0,1
395801597072,-6,4,2,-6,-4,-3,0,-1
395801597072,-3,1,4,9,5,3,-2,-4
395801604483,3,11,-4,-2,1,2,0,1
395801604483,-3,-8,-1,-1,-1,-1,-1,-2
395801619648,0,3,-1,0,0,-1,0,-1
395801619648,-1,-1,-2,-8,-5,-4,-4,-1
395801627167,-2,-6,2,-2,-1,-1,-2,-2
395801627167,3,-4,-3,-2,0,0,0,-1
395801636034,0,-3,-4,-1,-1,0,-1,-2
395801636034,-2,0,-1,0,-1,1,-1,-5
395801650359,0,0,-2,1,1,0,0,-1
395801650359,-1,-1,2,-1,-4,-2,-2,1
395801657166,1,0,-5,1,0,1,-2,-1
395801657166,-2,4,2,-5,-1,-1,-1,1
395801664633,-3,-7,-3,-3,-1,-1,-1,-1
395801664633,0,-2,0,-1,1,-1,0,1
395801679702,-2,-1,2,0,0,0,-2,-3
395801679702,1,6,-9,-5,-2,-2,-1,1
395801687036,8,0,-7,0,0,-4,-4,-3
395801687036,-5,-6,13,-2,-1,-2,-1,-2
395801695979,1,-2,-2,5,1,-1,0,-1
395801695979,-2,-6,-6,-8,-4,-1,-1,2
395801710272,1,0,-1,1,0,-1,-2,-1
395801710272,1,8,-1,0,-1,0,-1,-1
395801717075,-3,-7,3,-1,-1,-2,-1,-2
395801717075,-2,4,-1,0,-1,0,0,-2
395801732938,-2,3,-4,-2,-1,0,-1,0
395801732938,2,-1,4,4,-1,-1,-1,-2
395801739588,-4,-2,-3,-4,-3,0,-2,-3
395801739588,2,5,1,1,0,-1,0,1
395801747198,-2,-3,0,-2,0,1,2,1
395801747198,1,-4,-2,-4,0,-1,-1,1
395801756053,3,-1,-13,-3,0,-2,-1,-2
395801756053,2,-3,18,7,2,2,0,-1
395801770401,-3,-9,-2,-1,-2,-1,1,-2
395801770401,-3,8,-4,-1,-3,-2,-1,-2
395801777187,2,-11,0,-2,-3,-1,0,0
395801777187,-1,4,-5,-1,-2,0,-1,-1
395801792855,-4,-5,0,0,0,2,-2,-1
395801792855,-1,5,2,1,0,-2,-2,-1
395801799741,6,-1,-6,-8,-2,-2,-1,0
395801799741,-3,7,1,5,-1,-3,-3,-5
395801807220,2,-1,0,-1,-1,1,-1,1
395801807220,-1,-21,-7,-1,-1,0,0,0
395801816032,1,14,5,0,1,1,0,0
395801816032,2,-3,-4,-6,-1,-1,-3,-2
395801830343,-7,3,-2,-1,0,-1,0,0
395801830343,0,1,-5,-2,0,1,0,-2
395801837147,-3,2,0,-3,0,-2,-1,0
395801837147,-1,1,10,5,0,0,1,1
395801852918,-1,-4,-8,-4,-2,-2,1,-1
395801852918,-1,-1,2,1,0,2,-1,-2
395801859742,-4,-2,4,5,0,0,-3,0
395801859742,-5,-5,-10,-4,-3,-2,-1,-1
395801866984,4,2,-11,-1,-2,-2,-2,-2
395801866984,-1,1,10,3,-2,-1,-2,-1
395801876180,-2,-9,1,-1,0,-3,0,1
395801876180,7,9,0,1,0,-3,-1,3
395801890182,-8,-15,0,0,-2,-1,-2,-4
395801890182,-1,8,-7,-2,-3,-1,0,-3
395801897206,-1,-2,1,0,0,1,0,-2
395801897206,-4,-8,-4,-1,0,0,-1,-2
395801912738,-2,0,-1,-2,-3,-3,-2,0
395801912738,-4,1,2,-1,-1,-2,-2,-5
395801919578,0,-3,-4,-3,-2,0,-1,0
395801919578,2,4,-1,-2,0,0,0,0
395801927201,0,0,8,4,-2,0,-2,-1
395801927201,0,-5,-4,-3,-2,-4,-1,1
395801936021,-2,8,-7,-6,-2,-1,-1,-2
395801936021,-2,-6,9,1,0,-1,-1,-2
395801950387,1,6,7,5,2,-1,-1,1
395801950387,-5,-5,-5,-7,-2,-2,-2,-3
395801957080,-1,13,-2,2,3,0,-2,-2
395801957080,3,-15,-10,-3,-3,0,1,2
395801972760,-4,-5,0,-2,-4,-4,-3,-3
395801972760,-1,5,-8,-3,-2,-1,0,0
395801986443,-4,-5,9,-2,-5,-3,-2,-2
395801986443,3,0,-6,1,2,1,2,0
395801987010,0,11,1,-2,1,2,0,-1
395801987010,0,-13,-5,-1,1,0,0,1
395801995982,0,4,0,0,-1,-2,1,-3
395801995982,-3,0,0,0,-2,-2,-1,0
395802011339,0,1,-1,-3,-1,0,0,-2
395802011339,1,-2,0,1,-1,0,-2,0
395802017138,-12,2,-2,3,1,1,-1,-1
395802017138,1,5,2,-7,-2,0,-2,0
395802032794,0,-11,1,1,1,0,-2,1
395802032794,0,10,3,2,1,0,0,0
395802039623,4,-6,-1,2,-1,1,3,1
395802039623,-3,-14,-8,-2,0,-1,-2,-2
395802047003,-3,6,-5,-4,-1,-1,-1,-2
395802047003,-1,1,2,-4,-3,-1,-1,-1
395802062085,-3,-2,2,1,1,-2,-1,-2
395802062085,-1,-4,-8,-3,-1,-2,-1,1
395802070206,0,-6,-2,-2,-2,-1,-2,-2
395802070206,-3,-7,-6,2,1,1,-1,-5
395802076989,2,-2,9,-1,0,1,-2,0
395802076989,1,6,-2,1,-2,0,0,0
395802092681,1,-5,-6,-1,-2,-1,1,0
395802092681,0,-6,1,-4,1,1,0,-1
395802099513,-8,6,-4,-1,-2,0,-1,-2
395802099513,0,-3,-2,1,4,3,-2,-3
395802107078,-1,-3,6,0,0,-1,-2,-1
395802107078,-5,8,-2,8,1,-1,0,-2
395802122248,2,-6,-3,-3,-1,1,-1,-1
395802122248,-2,4,-7,0,-1,-1,-1,2
395802130423,-1,10,4,-3,-1,-1,-1,0
395802130423,-1,-12,-1,-5,0,-2,-3,-1
395802137145,1,13,5,9,1,-1,2,1
395802137145,0,-22,0,0,-2,0,0,0
395802152824,-4,13,-4,-3,-1,-2,-2,-3
395802152824,-3,0,5,2,-1,-1,-1,-2
395802159669,1,-9,-6,-7,-1,-2,-1,0
395802159669,3,9,6,2,1,0,-2,-2
395802167191,0,-4,-2,1,2,0,0,2
395802167191,2,-5,6,5,0,1,1,0
395802182026,0,-2,-9,-5,-5,-3,-1,-2
395802182026,-4,8,-1,-2,0,-1,-1,0
395802190387,-1,0,4,1,-2,0,-1,-4
395802190387,1,10,2,-1,-3,1,-1,-1
395802197234,1,-10,-2,-2,-2,-2,-2,0
395802197234,-11,-3,-3,0,-1,-2,1,0
395802212787,-1,-2,-3,-3,-3,0,-1,-3
395802212787,4,1,-5,-3,-2,-3,-1,-4
395802219496,2,1,4,2,0,1,-1,0
395802219496,-3,-12,-11,-5,-2,-2,-1,-1
395802227123,1,-4,-1,2,0,0,-1,1
395802227123,-6,-15,0,-5,-5,-3,-2,-2
395802242132,-3,4,0,-1,-1,-3,-3,0
395802242132,7,10,3,-1,0,0,-1,1
395802250150,0,-8,5,8,1,-1,-1,1
395802250150,-4,-14,-2,2,1,-2,-3,-4
395802257008,0,-2,1,-2,-3,-3,0,-1
395802257008,-3,6,3,8,2,0,1,-2
395802272725,-5,-33,-10,-10,-5,-1,1,0
395802272725,0,16,-4,-1,1,0,0,-2
395802279586,-3,-16,15,11,4,-2,1,-1
395802279586,1,5,-1,-2,-1,0,-1,-2
395802287171,0,1,-2,-1,0,1,0,0
395802287171,3,3,-5,-5,-5,-2,0,3
395802302145,-5,0,-6,-3,0,-1,-2,1
395802302145,7,-10,2,-1,0,-3,-1,-3
395802310323,-7,2,1,5,0,-1,-2,-3
395802310323,7,2,1,-4,2,0,-1,-1
395802317132,2,5,-3,-5,-3,-1,-2,-1
395802317132,-1,-16,-5,-1,-3,-3,-1,0
395802332773,2,6,-4,-3,-1,-2,0,1
395802332773,-4,3,-5,-4,-2,-2,0,-2
395802339563,-2,6,16,6,0,-1,-1,-3
395802339563,-6,9,-4,-4,-3,-3,-1,-1
395802355228,5,-3,-4,-3,-3,-3,-2,-1
395802355228,-6,2,2,0,-1,-1,-1,-1
395802362008,3,0,-6,0,1,0,-1,-1
395802362008,-2,-14,-7,-7,0,1,-1,0
395802378367,1,3,3,6,2,1,-1,1
395802378367,-2,4,-3,-2,-3,-2,-1,-2
395802379988,2,-4,-7,-2,-2,0,0,1
395802379988,-2,8,7,-1,-2,-1,-3,-3
395802392873,3,-17,-4,-4,1,1,1,1
395802392873,-13,-8,5,3,0,-1,-3,-2
395802399710,3,5,-5,-1,-1,0,2,0
395802399710,-4,0,-4,-3,-1,0,1,0
395802415393,-7,3,6,1,-1,-1,-2,-1
395802415393,12,4,0,-2,-1,-3,-1,0
395802422193,-6,-8,-5,-5,-2,1,-1,-1
395802422193,2,-7,-14,-3,-3,-1,-1,1
395802438383,-4,10,9,1,-1,-1,1,-4
395802438383,-4,-10,-5,-1,1,1,0,0
395802439957,1,4,-4,-1,0,-3,1,1
395802439957,3,-5,1,-2,-3,-3,-1,0
395802452867,-1,16,-5,-2,-1,-1,0,0
395802452867,-2,-2,3,-1,0,-1,-1,0
395802459618,1,-3,0,2,0,-1,0,-1
395802459618,0,0,3,12,2,1,1,1
395802475247,0,-3,-3,-7,-2,1,0,0
395802475247,-4,1,1,1,-1,-1,-1,-3
395802482117,0,-3,-4,-6,-4,-1,-2,-3
395802482117,-2,1,2,1,0,-2,-2,-3
395802498600,2,-4,-4,-4,-2,0,-2,1
395802498600,7,8,1,-3,-1,-1,2,3
395802499987,-7,-16,-3,-1,-2,-2,-1,1
395802499987,5,7,0,1,0,1,-2,0
395802512665,0,-4,-2,0,-2,-3,-1,0
395802512665,-2,4,-2,-4,-3,-3,-2,-2
395802519592,2,0,1,1,-1,1,0,0
395802519592,1,7,1,1,-1,-1,-1,0
395802535277,-1,-21,-15,-5,-2,-1,0,-2
395802535277,-6,-11,10,-2,-1,-1,-1,-2
395802542022,-7,14,0,7,1,0,1,-3
395802542022,0,-12,-12,-5,-1,0,-1,1
395802558397,2,8,16,6,3,1,-1,-1
395802558397,-4,11,-7,5,3,0,0,-4
395802560149,-2,-10,3,0,2,-1,-2,0
395802560149,1,12,1,-1,-1,0,0,-2
395802572015,0,-1,-7,-6,-3,-1,-2,0
395802572015,0,-6,-3,-4,-2,-2,-1,1
395802580936,1,0,-2,0,-2,-1,-1,0
395802580936,-2,3,1,-2,1,-1,0,-1
395802603447,-2,-1,3,1,-3,-2,-1,-3
395802603447,-2,0,4,1,-4,-1,0,-1
395802604966,1,-3,-6,-4,1,-2,0,-1
395802604966,-1,2,-1,-4,-4,-3,-1,1
395802618411,-7,-21,-4,2,2,0,-1,-3
395802618411,3,7,-1,-1,-2,-1,-2,0
395802620084,2,-10,-2,1,2,-2,-1,1
395802620084,-3,-8,8,1,-5,-2,0,-1
395802632942,0,8,-3,-2,-1,-1,-1,0
395802632942,-3,1,-4,-2,0,1,-1,-2
395802639638,3,-8,-7,-3,-3,-1,0,-1
395802639638,1,-12,-1,7,3,1,2,2
395802655194,-2,8,-3,-3,-1,0,-2,-3
395802655194,-4,-9,2,-1,-1,-2,-2,-2
395802661963,1,6,-1,-5,-1,0,-2,-1
395802661963,-1,1,-4,-3,-4,-3,0,0
395802678576,-9,-4,0,0,1,-2,-2,-5
395802678576,2,0,-1,-3,0,1,-1,-1
395802679974,-4,0,-1,-2,-3,-1,-1,-3
395802679974,-2,2,1,2,4,-2,-2,-1
395802692817,2,7,0,-1,-1,0,-1,1
395802692817,-7,-6,-2,-3,-2,-1,-1,-6
395802699583,2,3,0,1,-2,-1,-1,-1
395802699583,-1,17,-10,-5,-2,0,1,1
395802715324,0,-12,7,-1,-2,0,-1,1
395802715324,-3,-12,3,2,-1,-1,-3,-2
395802722130,-3,14,-6,-7,-6,-3,-2,-1
395802722130,2,2,-3,-2,-1,2,0,0
395802738512,0,5,-2,-2,-1,-3,0,-3
395802738512,5,0,-7,-2,-2,-1,-1,-1
395802740048,-5,-14,-2,5,1,0,0,-1
395802740048,0,2,5,-5,-3,-2,-2,0
395802752161,4,6,-5,-3,-4,-2,-2,3
395802752161,-4,-11,10,-2,0,-3,0,-1
395802760974,-2,8,-4,1,-1,-2,0,-1
395802760974,-2,-12,-9,1,0,0,0,-1
395802775381,-4,-3,-2,-1,0,-1,-1,0
395802775381,5,-10,-3,-1,-3,-1,-2,1
395802782155,3,12,2,-1,0,-2,-3,-1
395802782155,1,-5,2,3,-1,0,1,2
395802798357,-5,10,-3,-1,-1,-3,1,-3
395802798357,-3,-4,-3,2,-1,2,2,-1
395802801054,1,-6,6,1,0,-1,0,-2
395802801054,3,-3,-2,-2,0,-1,0,0
395802812186,2,1,-2,-4,-2,0,-1,-1
395802812186,-3,3,1,4,4,0,-3,0
395802821053,1,-8,4,0,-1,-1,-1,1
395802821053,-4,0,-1,-3,-1,0,-2,0
395802835406,3,1,1,-3,2,2,1,-2
395802835406,-1,3,-1,5,0,-1,1,0
395802842020,0,12,-2,-5,2,1,-1,-3
395802842020,-3,-1,7,2,0,-3,-1,-3
395802858904,-3,-22,-6,-3,-2,0,0,-3
395802858904,-3,-3,-1,-3,-2,-2,-1,-3
395802864603,-1,-3,-1,-2,-2,-1,0,1
395802864603,-1,2,-4,-4,-1,-2,-1,-1
395802872194,3,5,2,2,-1,-1,-1,-2
395802872194,-3,-1,-1,-3,-1,-2,1,-1
395802880972,-1,-4,-2,-2,0,1,1,0
395802880972,-1,-9,-6,-1,-1,-2,-2,1
395802895347,-1,0,8,3,0,1,0,0
395802895347,-4,5,-3,-3,-2,0,1,1
395802901963,-3,0,-1,-1,-2,-3,-2,-4
395802901963,1,-6,-5,1,0,-1,0,1
395802918547,-1,17,-1,4,1,-4,-3,-1
395802918547,3,-3,3,-1,-1,0,1,-1
395802920053,-1,-16,-4,-5,0,0,-1,1
395802920053,-2,0,-2,-1,0,-1,-2,-3
395802932024,0,-5,-1,-1,-2,-3,-2,-2
395802932024,-2,2,0,-9,-4,-2,-2,-1
395802940932,3,10,2,7,1,2,1,3
395802940932,-8,-16,-4,0,-3,-2,-2,-2
395802955192,5,-3,-5,-2,-1,0,-1,4
395802955192,-2,0,-3,-3,0,1,-3,-3
395802961985,0,0,10,0,-3,-3,-2,-3
395802961985,1,3,-5,-6,-3,1,1,-1
395802978366,0,0,1,6,1,-2,0,1
395802978366,-1,3,-7,-2,-1,0,0,-2
395802979956,3,-2,8,3,0,-1,-1,0
395802979956,-3,7,2,1,0,-1,-2,-2
395802992188,0,1,-2,-4,-4,-3,-2,-1
395802992188,-3,-17,-6,-3,-2,-3,-2,-4
395803000952,-2,3,-5,-4,-2,-2,-1,-1
395803000952,3,2,2,1,0,0,0,2
395803015341,-2,-4,-5,-4,-2,2,0,-1
395803015341,6,7,3,0,-4,-1,-2,-2
395803022022,-2,-6,-4,-1,-1,-2,-1,-1
395803022022,10,19,0,-4,-1,-4,-2,1
395803037872,-12,-33,-6,0,-3,-3,-1,-4
395803037872,2,9,10,1,2,1,-1,0
395803044486,-2,1,-12,-4,-2,-1,-1,-2
395803044486,0,4,-6,-2,-2,1,-1,1
395803052122,3,5,18,2,-2,-1,-2,-1
395803052122,-4,-5,2,1,2,1,0,-1
395803060995,-3,-6,-5,-2,-3,-3,-2,-1
395803060995,-2,-4,1,0,1,0,-2,-3
395803075144,-3,4,-5,-4,-3,-2,0,-2
395803075144,-3,-6,-13,-3,-1,0,0,0
395803082127,5,22,15,5,3,0,0,1
395803082127,-5,-26,-7,-3,-3,-1,-1,-1
395803097645,-3,1,-7,-5,-2,0,-2,-2
395803097645,-4,6,6,0,-2,-3,-2,-3
395803104628,0,-3,-10,-7,-2,0,-1,-1
395803104628,-1,5,1,2,1,1,0,2
395803112042,-3,2,-1,-1,0,2,1,-2
395803112042,-2,-1,0,0,-3,-3,-3,-1
395803120963,0,-2,-3,0,0,0,0,-2
395803120963,1,2,-1,-4,-2,-2,-1,1
395803135349,5,-3,1,3,2,1,1,1
395803135349,-2,1,-6,-2,-1,-1,0,-2
395803142170,-3,-14,9,0,-1,-2,-1,-2
395803142170,-4,5,-7,-5,-4,-1,-2,-2
395803157744,0,3,-1,0,0,-1,-1,0
395803157744,-4,-3,3,-2,2,-1,-2,-3
395803164660,-4,-7,-8,-7,-3,0,-2,-2
395803164660,0,-4,1,3,0,-2,-3,1
395803181016,3,3,0,-3,-1,-3,-1,-1
395803181016,-9,3,5,4,-1,-1,2,1
395803182468,2,-6,1,4,2,2,-2,-3
395803182468,-8,-15,-6,-7,-1,0,-1,-3
395803195176,0,10,4,9,1,-1,-1,0
395803195176,0,-2,-2,-7,-4,-3,-1,-2
395803201963,-2,-1,1,3,-2,-2,0,1
395803201963,3,0,2,3,-1,-2,-1,0
395803217834,-1,-1,-2,-5,-2,0,0,-1
395803217834,-1,-1,0,7,3,1,-1,-2
395803224531,-2,-3,-5,-3,-2,0,-1,-1
395803224531,1,-2,-1,-2,-3,0,-1,-2
395803241003,-3,3,-13,-7,-1,0,-2,-3
395803241003,5,15,22,4,0,-1,-2,1
395803242398,-2,-12,-9,-3,-2,-3,-2,0
395803242398,1,-3,1,1,1,0,0,-1
395803255155,-2,-3,-10,-5,-2,-1,0,1
395803255155,-2,-7,-8,-4,-2,0,-1,-5
395803262138,0,6,0,-1,0,-2,-1,2
395803262138,2,-7,-5,-1,-3,-2,0,1
395803277260,1,10,8,9,1,1,1,-1
395803277260,1,-9,-4,-8,-4,-3,-4,-1
395803284565,1,-1,0,0,-2,-1,-3,-2
395803284565,-7,1,-4,-1,-1,-1,-2,-2
395803300227,8,-9,4,0,0,-1,-1,0
395803300227,-1,-2,-2,-4,-2,1,-1,0
395803300845,-3,-1,-8,-4,-4,-1,1,1
395803300845,-6,2,7,3,6,1,-3,-5
395803315993,0,3,-3,-3,-3,-5,-3,-2
395803315993,0,13,2,3,1,-3,1,1
395803322149,-6,-2,3,-4,-1,-1,0,-1
395803322149,2,2,-1,1,1,0,0,2
395803337103,-6,-3,-5,-6,-3,-1,-1,0
395803337103,0,1,-3,0,-1,-1,-1,-2
395803344438,0,-3,-1,1,-2,1,0,0
395803344438,2,5,1,1,-2,-2,0,1
395803360245,-1,-1,-2,-1,-1,-4,-3,-3
395803360245,-3,-7,-7,-7,-4,-3,-2,-3
395803360969,-2,5,-1,2,2,0,-1,-5
395803360969,2,-8,2,-1,-2,-1,0,-1
395803375922,-2,-8,0,-3,-2,-3,-2,-2
395803375922,-3,-7,-1,-2,-2,1,0,-3
395803381946,-1,2,-3,-2,0,-1,0,-2
395803381946,-1,5,-6,-1,0,0,0,-1
395803397155,-2,-6,1,0,-1,0,0,-1
395803397155,-2,-3,-1,-1,-1,-2,-1,0
395803404629,0,-1,-3,-2,-1,-2,-2,0
395803404629,1,3,-1,0,0,-2,-2,-1
395803420365,8,6,-8,-10,-5,-2,-1,0
395803420365,-6,-20,10,19,2,1,1,0
395803420913,2,0,2,2,1,0,1,-1
395803420913,3,2,-1,-2,-2,-2,-1,1
395803435934,-2,4,2,-2,0,-2,-2,-1
395803435934,1,8,-6,-6,-1,-1,-2,-2
395803442128,-3,-4,-1,-2,-2,-2,0,1
395803442128,1,-2,-1,3,-1,0,0,1
395803457156,-2,-3,0,-1,0,1,0,0
395803457156,0,-1,-3,-3,1,0,-2,0
395803464599,-11,2,7,5,1,1,0,-2
395803464599,11,0,-6,-2,1,1,1,2
395803480345,-4,-6,3,3,-1,0,1,-1
395803480345,0,-8,-1,0,0,-2,-2,-3
395803480917,-2,15,-4,-4,-1,-2,-2,2
395803480917,-3,2,-1,-2,-1,0,-1,1
395803495956,-1,0,1,3,2,-1,0,-1
395803495956,-1,-2,-3,-6,-3,-1,-1,-1
395803501915,5,-4,-3,-4,-2,-3,-2,-3
395803501915,-3,0,0,-3,-2,-2,-2,-2
395803517138,0,1,9,8,3,2,1,-1
395803517138,-1,8,-9,-7,-2,-2,-1,0
395803524686,-5,-17,4,2,0,0,-2,-2
395803524686,4,18,-1,-2,-2,-1,-1,1
395803540316,-14,-42,-13,-8,-7,-1,-4,-5
395803540316,3,16,6,2,1,0,2,-1
395803540918,0,1,-9,-2,-1,0,1,0
395803540918,-2,-3,-1,1,1,-1,-1,-1
395803556027,10,9,0,-3,-1,-1,-2,4
395803556027,-5,-5,1,-2,0,-1,-1,-7
395803561950,2,-3,-4,3,1,-1,-3,-1
395803561950,-3,-13,-11,-2,0,-1,0,-1
395803577189,1,26,14,5,1,0,0,0
395803577189,-3,-10,-2,-3,0,-1,-3,-2
395803584677,1,0,-2,-2,-3,-3,-1,-2
395803584677,1,0,-3,2,-2,0,-1,0
395803600499,-2,-8,-8,-5,2,0,0,-2
395803600499,-1,4,0,-5,-4,-1,-2,-1
395803600899,4,3,7,11,7,4,1,1
395803600899,-1,-7,-3,-4,-1,-1,-2,0
395803616075,-5,-1,-3,-4,-3,-3,2,-1
395803616075,-1,-4,-3,-8,-3,0,0,-1
395803621941,0,8,-8,-6,-4,-3,-2,-2
395803621941,-5,-25,-5,0,-2,-4,-3,-1
395803637183,0,1,-2,-1,-2,1,0,-1
395803637183,1,2,0,0,-2,-2,0,-1
395803644567,2,2,2,3,0,-2,0,1
395803644567,1,7,2,1,-1,-2,1,-1
395803660297,-1,1,-1,0,-1,-3,-2,-3
395803660297,-2,1,-2,0,1,0,-1,1
395803660869,1,-9,-7,-8,-5,-1,-1,0
395803660869,-2,5,1,-1,-2,-1,-1,0
395803675962,5,4,0,1,2,2,0,-1
395803675962,-4,1,1,2,1,-1,-2,-3
395803681934,0,-5,-1,0,0,1,0,1
395803681934,3,2,-8,-6,-2,-1,1,1
395803697057,1,-2,8,11,1,1,-1,0
395803697057,1,8,18,6,-1,0,0,0
395803704574,-11,-2,-2,-6,-3,-2,-3,-4
395803704574,-1,-8,1,8,1,0,-1,-2
395803720218,-4,-4,-9,-4,-2,0,-1,-1
395803720218,-4,-3,-5,-2,-1,0,0,-2
395803721055,6,-8,-3,-4,-1,-2,-2,2
395803721055,-2,5,5,3,-2,-1,0,-1
395803735946,0,-1,0,-4,-1,0,-1,-1
395803735946,-1,-7,-1,2,0,-1,1,0
395803741920,0,15,1,-3,-1,-1,-1,-2
395803741920,-1,-3,-3,-3,0,-1,0,-1
395803757134,-3,0,2,1,0,0,-1,-2
395803757134,0,3,-6,-4,-2,0,2,1
395803764632,-2,1,0,0,-1,0,-2,-2
395803764632,1,3,1,-1,-1,0,-3,0
395803780311,-2,16,1,0,-1,-4,-1,-2
395803780311,-4,-18,-2,0,-1,-1,-3,-3
395803780891,0,-2,-2,-2,-3,-2,-2,-2
395803780891,-1,9,-2,-4,0,2,1,0
395803795964,-4,-15,7,-4,-3,-2,-2,-1
395803795964,0,-3,3,11,2,-4,0,-1
395803801920,0,1,-7,-3,-1,-1,0,-1
395803801920,0,2,1,0,-3,-2,-2,0
395803817229,-1,-8,-6,-5,-2,-1,-1,0
395803817229,2,8,0,-5,-1,1,1,-1
395803824644,-2,-14,-1,2,-1,-1,0,0
395803824644,1,4,-2,0,-1,-1,-2,-1
395803840094,-1,-1,-7,-2,-2,0,1,-1
395803840094,0,-5,0,1,1,0,-2,-3
395803840931,1,3,-2,-2,-1,-2,-1,0
395803840931,-1,-5,-2,-4,-3,-1,-2,-2
395803855997,0,-12,2,-2,0,-1,0,-1
395803855997,0,15,1,13,1,0,-1,1
395803861964,-4,0,-6,-4,0,-1,-2,1
395803861964,-2,-6,0,-5,-4,-4,-2,-3
395803877064,-2,1,9,1,-2,-1,-1,-1
395803877064,2,1,-8,-9,-3,-2,-2,-1
395803884451,1,0,2,2,-2,-2,-2,-2
395803884451,-1,5,-2,1,2,0,0,-2
395803900243,3,4,-8,-5,-2,-2,0,0
395803900243,-11,-3,2,0,0,0,-1,-3
395803900887,-1,4,0,-1,-3,-1,-1,0
395803900887,-1,-4,-7,-6,0,0,0,-1
395803915907,-1,-19,-3,5,3,1,0,-2
395803915907,-1,-10,0,-6,-3,-2,-2,0
395803921936,1,-5,-7,-2,-1,0,1,0
395803921936,-3,-11,14,6,0,-2,-2,-2
395803937140,-4,5,-1,-1,0,-2,-2,-3
395803937140,3,-13,-10,-6,-2,-1,1,3
395803944536,-9,13,-1,0,0,0,-1,-3
395803944536,9,25,-3,-3,0,0,2,2
395803959600,-10,-36,-10,-4,-2,-3,-1,-2
395803959600,0,1,-5,-3,-1,-3,-1,-2
395803967118,6,-2,6,0,1,2,1,-1
395803967118,-3,4,6,5,1,-1,0,-2
395803975957,0,23,0,-5,-4,-4,-3,-2
395803975957,4,-1,-6,-4,-2,-2,-3,-4
395803982138,-5,-6,0,3,-3,0,1,-1
395803982138,-2,1,-6,-2,-2,-2,0,-1
395803997158,4,12,1,2,-3,-3,-1,0
395803997158,-3,-22,-14,-5,0,1,0,2
395804004397,2,21,12,4,-1,-2,-3,-2
395804004397,-3,-19,-1,-1,-1,0,-2,-2
395804019453,-4,7,3,-4,-3,-3,-1,-2
395804019453,3,8,-1,-2,1,-1,-1,-1
395804027088,-1,-5,-4,5,1,1,0,0
395804027088,0,-3,-1,-2,-1,0,0,0
395804035926,8,6,0,-5,-1,2,0,2
395804035926,-15,-1,-2,6,-2,0,-1,-6
395804042110,3,4,11,-5,0,-1,0,0
395804042110,-3,2,-5,1,0,-1,-1,-1
395804056942,2,-12,-15,-6,-4,-1,-2,-3
395804056942,-10,8,29,10,1,-4,-4,-3
395804064518,6,9,-7,0,-1,-4,-2,-2
395804064518,-2,-13,-1,-4,-2,1,-1,-1
395804079499,0,-1,-3,0,-1,-1,0,0
395804079499,1,5,2,-5,-3,-2,-1,-1
395804087120,-1,-1,7,11,2,-2,-1,0
395804087120,-1,-9,-7,-3,0,-2,0,0
395804095917,0,34,16,4,1,1,0,0
395804095917,-4,-57,-19,-5,-4,-3,-3,-3
395804101915,-2,-13,-7,-5,-1,1,1,0
395804101915,6,14,0,-5,-1,-1,-1,1
395804117152,-12,-5,-16,0,-1,0,-2,-4
395804117152,0,19,5,-1,0,1,0,-2
395804124678,1,-2,4,3,4,1,0,1
395804124678,-3,-10,-3,0,-2,-3,-2,-2
395804139455,2,4,-32,-10,-3,-4,-1,-1
395804139455,4,18,38,5,2,-1,1,1
395804146921,1,-6,-9,6,0,-1,-1,0
395804146921,-12,-12,-2,-2,-1,-1,-1,-2
395804162640,2,-5,1,1,-2,-1,-1,0
395804162640,0,1,-20,-11,-3,-2,1,-1
395804163422,2,12,-1,-6,-1,-1,-1,1
395804163422,4,1,9,4,1,-2,-1,1
395804177033,-11,-54,-2,-1,1,0,-2,-3
395804177033,-3,3,-2,3,-1,-1,-1,0
395804184554,-4,-11,-2,-10,-3,-2,-1,-2
395804184554,5,6,-7,7,2,1,-3,-2
395804199564,3,1,9,1,-1,0,-1,-1
395804199564,-2,9,2,0,0,-2,-1,2
395804207001,1,-7,-18,-4,-3,-1,-1,-1
395804207001,-4,-2,26,3,-1,1,0,-1
395804222748,-7,3,10,12,4,0,0,-1
395804222748,9,4,0,0,-1,-1,-1,0
395804223428,-4,0,-10,-10,-5,-4,-2,0
395804223428,-3,-8,-9,-4,0,-1,0,-3
395804237075,1,9,7,1,0,0,1,1
395804237075,0,7,-1,-2,-2,-2,-2,0
395804244578,-6,-11,-1,-1,0,-1,-1,-1
395804244578,4,-4,-6,-2,-1,-3,1,-1
395804259587,-2,13,4,-2,-2,-1,-1,0
395804259587,-3,-12,-9,-3,1,0,0,-2
395804266968,1,-4,5,1,1,0,0,-1
395804266968,-1,8,-2,-1,-2,-1,-1,-3
395804282654,-3,-1,2,-1,-1,0,0,-2
395804282654,3,10,4,3,-1,0,1,1
395804283485,-3,-2,2,1,-1,0,0,-1
395804283485,0,-17,-10,-3,-3,-1,0,1
395804297031,-15,-3,-4,-3,-3,-2,-3,-8
395804297031,1,9,9,-2,-3,-1,-2,1
395804304542,-5,-5,-1,1,1,0,0,-1
395804304542,-2,20,-3,0,-1,-2,-3,1
395804319540,9,-11,-7,-5,-3,-2,-2,0
395804319540,1,3,-2,0,-1,-1,0,-1
395804327057,2,7,-2,-6,-5,-3,-3,0
395804327057,-4,-6,-7,-1,0,2,-1,0
395804342698,8,1,13,7,0,2,0,0
395804342698,-9,-9,-9,-2,-2,0,0,-2
395804343545,18,2,1,1,3,0,0,0
395804343545,-14,-7,-6,-8,-3,-3,-1,-2
395804357055,6,3,1,-1,0,-2,-1,1
395804357055,1,0,1,-2,-2,0,0,-2
395804364527,0,-4,0,1,-1,1,0,1
395804364527,8,1,-3,-3,-1,1,-2,-1
395804379479,-7,1,-3,-3,0,-1,-1,-2
395804379479,0,8,-4,-2,-1,-1,-1,-2
395804386975,-2,-19,-4,-3,-2,-1,-1,0
395804386975,-6,-18,6,0,-2,-1,-3,-3
395804402660,-5,3,5,-2,-1,-1,0,-1
395804402660,4,-2,-3,4,2,1,-1,-1
395804403396,-5,8,-4,-3,-2,1,-1,0
395804403396,4,5,-4,3,-1,-1,1,1
395804417001,0,4,-1,-1,1,0,0,-2
395804417001,2,-4,5,-3,-1,0,-2,0
395804424535,-5,4,-18,-3,-1,-1,-2,-1
395804424535,-2,-2,12,1,1,1,1,-2
395804439402,2,5,-4,-7,-3,-3,0,-1
395804439402,-9,-6,-3,4,4,2,-1,-1
395804447061,26,25,2,-1,-1,-1,0,2
395804447061,-4,8,2,-5,-2,-3,-2,-2
395804462545,-12,-47,-7,1,-4,-1,-1,-3
395804462545,-3,-3,-10,-5,-2,-1,1,0
395804463487,-3,-16,-8,-2,0,-2,-1,-2
395804463487,4,24,8,4,0,-1,-1,1
395804477055,4,5,-3,-6,-2,-2,-1,3
395804477055,-3,6,10,-2,-3,-2,-3,-2
395804484515,-10,4,3,14,4,0,0,-1
395804484515,-1,-16,-13,-6,-1,0,1,-2
395804499501,-1,0,5,-5,0,0,-2,0
395804499501,0,20,-9,1,0,0,0,1
395804507103,-13,-35,-4,-5,-3,-2,-2,-2
395804507103,-1,-11,-6,2,1,-1,0,0
395804522530,-3,-3,0,-3,-3,-3,-2,-3
395804522530,-1,1,-20,5,2,1,-1,-1
395804523311,0,17,18,11,0,0,-1,1
395804523311,-3,-7,5,-6,-3,-2,-2,-1
395804536912,-1,12,8,1,1,0,-1,-2
395804536912,0,-7,-2,-2,-2,-2,0,1
395804544494,-6,-3,-10,-10,-3,-2,0,-2
395804544494,1,2,-4,-9,-3,-3,-3,-2
395804559483,3,19,6,32,9,2,1,2
395804559483,-4,-18,-9,-4,-3,-1,-1,-1
395804567012,8,15,14,0,0,0,-1,0
395804567012,-12,-63,-19,-9,-5,-2,-2,-3
395804582738,3,25,6,-13,-4,-3,-1,-2
395804582738,-12,-24,0,-4,-3,-2,-1,-2
395804583383,-1,0,5,5,0,-1,0,0
395804583383,6,34,14,8,1,0,1,-1
395804597015,-5,-15,-20,-8,-2,-2,-2,-3
395804597015,6,-10,-2,6,2,0,-1,1
395804604559,-5,-6,7,-10,-3,-2,-1,-2
395804604559,7,66,19,5,1,1,1,2
395804619510,-10,-81,-15,-1,1,0,-1,-2
395804619510,3,28,6,-9,-6,-4,-3,-1
395804626886,-1,-4,-13,-2,-3,-1,-2,1
395804626886,-2,-16,-3,8,3,2,0,-1
395804642551,1,25,2,-6,-3,-2,-2,-1
395804642551,3,-7,-3,0,0,-1,0,1
395804643357,-1,13,-1,1,2,1,1,2
395804643357,-2,-12,-4,-2,-4,-4,-1,-2
395804657006,2,14,18,-3,-2,-2,-1,-1
395804657006,1,5,1,-5,-1,-1,0,1
395804664588,1,27,1,16,4,0,1,1
395804664588,-2,-12,-19,-5,-2,0,-1,0
395804679486,-5,10,-2,2,-3,-1,0,-4
395804679486,6,-11,14,-5,-4,-3,-1,-2
395804686890,-3,-10,-20,-3,-1,1,-1,0
395804686890,-1,0,4,6,2,1,0,1
395804702523,-8,2,6,13,1,-2,-2,-2
395804702523,2,19,7,-9,-3,0,1,1
395804703312,5,-31,4,4,0,1,0,-1
395804703312,-7,-6,-1,-3,-1,-3,-2,-5
395804716975,3,4,-10,-10,-3,-1,-2,-1
395804716975,-5,27,-7,2,0,-1,-2,-2
395804724506,1,-21,12,2,0,1,0,0
395804724506,-3,34,-29,-13,-6,-4,-2,-3
395804739528,16,2,35,4,2,2,1,3
395804739528,-22,-23,-13,-7,-4,-5,-4,-10
395804747053,2,19,1,-7,-3,-1,-1,-1
395804747053,3,2,6,4,1,2,-1,0
395804762570,0,1,-10,-2,-1,-2,0,-1
395804762570,3,-9,-12,1,2,0,-2,0
395804763403,-3,-4,10,-4,-3,-5,-3,-3
395804763403,5,8,11,6,2,2,1,-2
395804776933,-10,-24,-15,-7,-5,-3,-3,-4
395804776933,2,-22,7,3,3,2,2,2
395804784378,-4,5,-11,-5,-1,-2,-2,2
395804784378,1,-26,-12,-2,-1,-1,0,0
395804799581,0,21,6,-4,-3,-1,-1,-1
395804799581,2,7,11,3,-2,-2,0,-1
395804807070,1,-11,-4,3,1,3,1,1
395804807070,-4,21,3,-3,-2,-1,-1,-2
395804822670,-4,-22,-11,2,-1,-1,0,-1
395804822670,-3,9,-5,0,1,-2,-1,-1
395804823433,-3,-4,-13,-5,-4,-2,-2,0
395804823433,7,25,15,5,0,-1,-1,1
395804837046,-4,-43,-15,-4,-1,0,0,-2
395804837046,-2,-17,3,4,-2,-1,-1,-2
395804844595,-1,9,-1,-3,-1,-2,0,-3
395804844595,1,-1,-5,3,1,0,0,0
395804859417,-4,18,8,-10,-4,-1,-2,-3
395804859417,-2,-12,-5,5,0,-2,-1,-1
395804866849,0,-18,12,-2,-3,0,1,0
395804866849,-2,7,-1,0,-2,-2,-2,-2
395804882091,-1,6,-9,-2,-2,0,-1,-1
395804882091,3,-1,-5,0,-1,1,1,1
395804890262,-2,10,1,-1,1,-2,0,-1
395804890262,-3,-25,-2,-4,-2,-3,0,-2
395804896949,1,-2,1,2,1,-1,0,-1
395804896949,0,6,4,-1,-2,-1,-1,0
395804904535,3,7,-6,-1,-2,-6,-2,0
395804904535,-2,-13,0,-3,-2,0,-3,-2
395804919623,-4,-2,2,-1,-4,-3,-1,-3
395804919623,2,24,5,1,4,2,0,1
395804926958,-2,-21,-13,-5,-2,0,-2,-2
395804926958,-4,-12,0,-1,-3,-3,-1,-2
395804941935,1,7,3,3,-2,-2,-1,-1
395804941935,6,6,3,-2,0,1,0,-1
395804950174,-5,-23,-14,-5,-2,0,-1,-2
395804950174,-4,-11,10,-2,-2,-1,-1,-2
395804957073,1,13,14,2,0,1,-2,-2
395804957073,6,42,-6,-3,-2,-1,1,2
395804964476,-1,-25,-3,0,1,-1,1,-1
395804964476,-9,7,1,-2,-1,-1,-1,-3
395804979443,9,12,7,1,1,0,-1,1
395804979443,-5,-7,-1,-3,-3,-4,-3,-3
395804986865,7,37,1,1,0,1,-1,1
395804986865,-3,-26,-14,-2,1,1,-2,-1
395805001893,-3,-5,8,3,3,0,-2,-2
395805001893,2,5,0,-1,-2,0,-1,0
395805010032,-3,0,-1,0,-1,0,-1,-1
395805010032,4,5,5,2,2,0,1,1
395805017076,-3,8,-8,-3,-1,-1,0,-2
395805017076,1,-14,0,1,-2,-1,0,0
395805024780,-6,7,1,-4,-4,-2,-1,-2
395805024780,1,-12,-3,-3,-2,-2,-2,-1
395805039343,-1,-2,-10,-2,1,-2,-1,-1
395805039343,5,14,4,1,2,-1,-1,2
395805046878,-10,-47,-10,-5,-4,-3,-5,-6
395805046878,-3,4,3,-1,-3,-2,-1,-2
395805061948,-2,0,-5,-2,-3,0,-1,-1
395805061948,1,1,0,0,-2,0,-1,0
395805070075,5,21,0,2,2,0,-1,2
395805070075,0,-9,-10,-2,-1,0,0,-1
395805085239,-2,3,11,-1,-2,-2,-1,-2
395805085239,-2,-23,-2,-1,0,-2,0,-1
395805085832,3,12,9,1,0,0,0,1
395805085832,-3,-3,-7,-1,-1,-2,-1,-1
395805099530,0,9,-6,0,1,2,0,1
395805099530,-3,-27,-2,-1,-2,-3,-3,-2
395805106957,-3,3,-3,0,0,-2,-1,-2
395805106957,0,4,0,-2,-1,0,-2,-1
395805121917,5,14,7,3,1,-4,-1,-1
395805121917,-8,-16,-10,-4,-2,1,-3,-4
395805130090,2,0,-3,2,1,4,2,1
395805130090,1,-1,-1,1,-1,0,0,0
395805145215,-2,-8,-7,-1,4,1,-1,-2
395805145215,-1,6,8,1,0,-3,0,1
395805145832,-1,1,-1,0,-1,-3,-2,-1
395805145832,4,18,4,0,0,0,-1,1
395805159510,-1,12,-2,-5,-6,-2,-3,-3
395805159510,-1,3,8,2,0,0,1,0
395805167022,-14,-30,-11,-4,-2,-1,-2,-2
395805167022,2,22,13,1,-2,-2,-1,-2
395805181944,0,1,-4,1,-1,-1,0,-1
395805181944,-2,-2,1,-3,-2,-2,-2,-2
395805190047,9,0,-3,2,0,0,1,2
395805190047,-4,-23,0,-2,0,1,-1,-1
395805205140,-6,-9,-9,-3,-3,0,-1,-1
395805205140,1,2,-3,0,0,0,-2,0
395805205930,2,5,6,0,-1,-1,-1,1
395805205930,0,2,-2,-2,0,-3,-1,-2
395805219508,-6,-14,-9,-2,-2,0,-1,-3
395805219508,2,4,1,-3,-1,0,1,-1
395805227108,-6,-4,4,-3,-2,-3,-2,-3
395805227108,2,5,-5,-1,-2,0,1,1
395805242055,2,13,7,-1,0,0,-2,0
395805242055,-9,-16,-16,-3,1,-2,-2,-3
395805250281,1,12,11,-1,-2,-3,-2,-1
395805250281,1,-7,-1,-2,1,2,1,0
395805265244,-4,-12,-2,-1,-1,-1,0,-2
395805265244,2,-3,-3,0,0,0,0,-1
395805265887,3,31,-1,-1,0,1,-1,1
395805265887,0,-23,1,-3,-4,-6,-4,-3
395805279568,-3,-22,-10,-3,1,1,-1,-2
395805279568,4,15,21,-1,-2,-2,-3,-1
395805286984,-2,-16,-8,-3,0,0,1,-2
395805286984,1,13,-2,-1,0,1,1,1
395805301838,-4,26,1,-2,0,0,-2,-2
395805301838,8,20,0,1,1,0,0,2
395805310181,-15,-74,-13,-4,-3,-3,-4,-4
395805310181,0,14,0,0,-2,-2,-1,-2
395805325262,0,-12,2,0,0,-2,1,-1
395805325262,-6,-3,-7,-2,0,-2,-1,-2
395805325877,8,34,7,2,0,0,2,3
395805325877,-3,-10,-4,-1,2,-1,1,0
395805339454,-3,-10,1,-2,-2,-1,-2,-1
395805339454,1,-4,-4,-1,0,-1,1,-1
395805346904,1,20,0,-2,-2,-3,-4,1
395805346904,-5,-18,3,-2,-4,-2,-4,-3
395805361888,2,8,2,0,-2,-1,1,-1
395805361888,-3,-8,-6,0,-1,0,-1,-1
395805370166,2,3,-1,0,1,0,-1,-1
395805370166,-2,5,-6,-1,-1,1,0,0
395805385011,1,-4,4,-1,-1,-1,0,0
395805385011,-6,-18,-3,-2,-2,-1,-2,-4
395805385812,-2,-7,-4,-2,-3,-2,-1,0
395805385812,5,54,14,1,-1,0,-2,0
395805399548,-4,-27,-4,0,-1,-1,-2,0
395805399548,-2,-3,-6,0,0,-1,1,-1
395805407022,12,45,11,2,1,2,1,3
395805407022,-17,-79,-25,-6,-2,-1,-2,-5
395805422073,0,16,1,-4,-2,-2,-2,-3
395805422073,0,4,3,1,0,-1,-2,0
395805430259,0,-1,-6,-1,-3,-2,1,-1
395805430259,4,14,13,6,3,2,0,1
395805445049,-3,-9,2,0,-1,1,-2,-2
395805445049,-3,-9,-2,-2,-1,-1,-2,-2
395805445804,4,6,1,1,0,0,-1,-1
395805445804,-2,-3,-6,-3,-1,-1,-1,-2
395805459532,-3,-8,1,0,0,-1,0,-1
395805459532,4,11,-1,-1,0,-1,1,1
395805467022,-4,-7,-2,-2,-2,-1,-2,-2
395805467022,-1,-5,-1,-1,-3,-3,0,-1
395805481950,-2,2,-2,0,-2,-1,-2,-2
395805481950,2,10,-4,-2,0,0,-1,1
395805490139,-6,-22,-3,0,0,-1,-2,-1
395805490139,1,-3,-2,-1,0,0,0,-1
395805505078,3,13,-1,0,1,1,1,-1
395805505078,0,-21,1,-2,1,-1,-1,0
395805505954,-3,3,-6,-3,-2,-1,-3,-1
395805505954,2,7,9,-1,1,-1,0,-1
395805519495,4,46,9,2,2,-1,1,1
395805519495,-12,-25,-10,-5,-5,-2,-4,-4
395805527022,3,6,-2,-1,-1,0,1,1
395805527022,-2,-11,-6,1,0,0,-1,-1
395805542010,6,-3,5,1,0,0,1,0
395805542010,-1,6,-2,2,-2,0,1,0
395805550229,-2,-1,1,-5,-3,-2,-1,-1
395805550229,-1,7,0,-1,1,0,-1,-1
395805565129,-6,-17,-5,-3,0,-2,-2,-3
395805565129,2,6,0,-1,1,-1,-2,-1
395805565973,-3,-15,-3,0,-1,-1,-1,-1
395805565973,0,4,0,0,0,-2,1,1
395805579420,-2,-4,-3,-2,-2,-1,-1,-2
395805579420,-1,-3,-2,1,-1,0,-1,-2
395805586868,5,15,0,2,1,1,2,0
395805586868,-5,-9,1,-2,-4,-2,-4,-3
395805610727,-2,-12,-2,-1,-3,-1,-1,-1
395805610727,5,15,-4,1,0,1,1,1
395805611608,-4,4,-6,-2,-1,-3,-1,-5
395805611608,0,5,8,-1,-2,-2,-2,-1
395805625197,-3,-14,-3,0,-1,-1,0,0
395805625197,-1,0,-2,-2,-1,-1,0,-1
395805625877,2,18,0,0,2,0,0,0
395805625877,1,-10,-10,-1,0,0,1,0
395805639410,2,37,13,-1,-4,-2,-1,-2
395805639410,-10,-52,-10,-5,-1,-2,-1,-2
395805647013,-2,-10,-2,-1,-2,-1,-2,-1
395805647013,2,5,0,0,0,-1,-1,0
395805661941,-1,-1,-6,-3,0,0,0,-1
395805661941,1,14,1,1,-1,-1,-1,0
395805670129,0,-8,2,-2,-2,0,0,0
395805670129,-3,-7,-6,-2,0,0,-2,-2
395805684452,-1,-6,2,4,0,1,-1,-2
395805684452,2,7,1,-1,-1,-2,-1,0
395805692531,-1,-11,0,0,0,-1,0,-1
395805692531,2,11,0,-1,-1,-1,1,1
395805699509,-4,-12,-7,-4,-1,-1,-2,-3
395805699509,8,-3,6,2,1,2,2,2
395805706977,-9,-20,-7,-2,-4,-2,-4,-4
395805706977,-1,3,-1,-1,1,-2,0,0
395805721843,-2,-14,1,0,-1,-2,1,-2
395805721843,1,8,-3,-1,-1,-1,-2,0
395805730087,2,4,-2,-1,0,-1,0,1
395805730087,-1,-9,-1,-3,-3,-1,-2,-1
395805745001,-3,-7,-3,-6,-4,-2,-1,-1
395805745001,0,14,5,6,2,-1,1,0
395805745764,1,8,1,-2,-2,-2,-1,0
395805745764,-1,-18,3,4,1,0,0,0
395805759514,-3,-5,-5,-5,0,0,-1,-2
395805759514,-2,1,-4,-7,-4,-2,-2,-3
395805766899,1,4,7,3,1,-1,0,1
395805766899,7,22,0,-8,-2,1,1,0
395805781868,-5,-10,1,8,0,-3,-2,-2
395805781868,-9,-37,-8,-9,-5,-3,-2,-3
395805790215,1,-5,-5,3,1,1,1,0
395805790215,1,18,2,1,-1,-1,0,-1
395805805118,0,0,-3,-2,0,0,1,1
395805805118,-2,8,-1,-2,-2,0,-2,0
395805805952,-1,1,1,2,0,1,0,0
395805805952,-3,-3,-2,-5,-1,-1,0,0
395805819550,-1,-9,-2,-3,-2,-2,-2,0
395805819550,2,12,7,4,1,0,0,0
395805827003,-2,-7,-2,-5,-2,-2,-2,-1
395805827003,-4,2,-4,-1,-1,0,-1,-3
395805841851,0,-6,2,1,-1,0,1,-1
395805841851,1,12,0,0,1,0,3,1
395805850187,-1,3,1,-2,-4,-2,-2,-3
395805850187,-2,-14,-4,-2,-2,0,-3,-2
395805864473,0,14,2,-2,-2,0,-1,0
395805864473,0,-12,-3,-1,-1,-2,-1,-3
395805872588,1,3,-2,-2,0,-2,0,-1
395805872588,-2,-8,-1,2,0,-2,0,0
395805879454,-3,-3,-1,-2,-1,-2,-1,-3
395805879454,-1,18,-1,0,-2,0,-2,-2
395805887014,5,14,4,1,0,-2,-1,1
395805887014,-5,-22,-7,-3,-2,-2,-2,-3
395805901882,-4,-17,-6,-2,2,1,1,1
395805901882,-1,-11,-3,2,1,1,0,0
395805910079,-8,-9,5,-2,-4,-3,-1,-2
395805910079,0,8,2,1,-2,-3,-2,-1
395805924418,3,8,0,2,-2,0,1,0
395805924418,1,-2,-3,0,-1,0,-1,0
395805932675,0,4,-8,-3,0,0,1,1
395805932675,-3,-11,2,-2,0,-1,0,-2
395805939567,-1,3,4,1,0,0,-2,-1
395805939567,0,10,3,-1,-2,-2,-1,0
395805946982,-1,-2,-6,-1,0,-1,0,0
395805946982,0,9,-3,0,-2,0,1,-1
395805961857,0,-9,-2,-1,0,-1,0,0
395805961857,-2,5,1,-4,-2,0,0,-2
395805970114,-1,-1,-2,-2,-2,-1,-1,-1
395805970114,-1,-3,-3,0,-1,0,0,-1
395805984477,6,15,4,1,1,0,-1,0
395805984477,2,-1,2,2,0,0,0,2
395805992549,-10,-16,-5,-3,-2,-2,-3,-4
395805992549,3,11,4,-1,-2,-2,0,0
395805999910,-3,1,0,-1,-3,-2,-1,-2
395805999910,1,5,-5,-2,-1,-2,-1,-1
395806006952,3,2,-3,0,0,1,2,0
395806006952,-3,-7,-5,-2,0,-1,-1,-1
395806022000,1,3,7,1,-2,0,-1,-2
395806022000,0,0,2,-1,-1,-2,1,-1
395806030135,-2,-9,-6,0,-4,-2,-2,-1
395806030135,0,3,-1,-1,0,-2,0,-2
395806044546,-1,-14,-6,0,-1,-1,1,1
395806044546,-3,-3,1,-2,0,-1,-1,-1
395806052686,3,0,3,4,2,-1,-1,1
395806052686,-2,-5,-4,-2,-3,-2,-2,-3
395806067723,1,26,4,-3,-1,-1,1,-1
395806067723,-7,-21,-4,0,-3,-1,-2,-1
395806068349,4,3,-1,-1,-1,-1,-1,1
395806068349,-1,0,1,1,-1,0,-1,1
395806081835,-3,-8,1,-2,1,0,-1,0
395806081835,0,1,-5,-1,0,-1,0,-1
395806090132,-1,1,-1,0,1,-1,0,-1
395806090132,3,13,2,0,1,-1,0,-1
395806104354,-5,-7,-5,0,-1,-2,-3,-2
395806104354,6,0,6,2,0,1,1,1
395806112831,-9,-11,-13,-5,-1,-2,-2,-3
395806112831,0,-3,3,0,-2,0,-1,1
395806127597,0,-5,-4,-3,-1,0,2,-1
395806127597,-4,0,-3,1,-1,-1,-1,-3
395806128462,4,4,2,0,0,0,-1,1
395806128462,2,9,2,0,-1,-1,-1,0
395806141977,-4,-17,-6,-3,-4,-2,-2,-2
395806141977,0,9,-2,-7,-1,-3,-1,0
395806150186,3,-2,14,8,2,0,0,0
395806150186,-3,4,-3,-4,-3,-1,-2,-2
395806164452,3,4,3,1,-1,0,-1,0
395806164452,-3,-11,-8,-7,-2,-1,0,-1
395806172665,1,2,-1,-3,-2,-2,-2,0
395806172665,-1,-5,-3,1,0,-1,-1,-1
395806187658,0,-4,0,0,1,0,0,0
395806187658,-1,4,4,1,-1,0,-3,-2
395806188347,-1,1,-5,-6,-2,-1,0,-1
395806188347,0,-12,1,1,-3,-1,-1,-1
395806201870,-6,-2,-10,-4,-3,-1,-1,-3
395806201870,1,11,2,2,0,-2,-2,0
395806210165,0,-8,-8,-2,-2,1,1,0
395806210165,-2,-6,5,-2,-1,-1,1,-1
395806224523,4,-2,3,1,-1,-2,-2,-1
395806224523,1,0,-1,0,-1,0,-1,1
395806232639,-1,1,-3,-3,0,-1,-1,0
395806232639,-4,-25,-6,-3,0,0,-1,-2
395806248996,0,4,-1,0,1,-1,-1,0
395806248996,1,-3,1,0,-1,0,-2,0
395806249047,-2,-2,-3,-2,-2,-1,-1,-1
395806249047,0,-2,-4,-4,-2,-3,-1,-1
395806261935,3,6,6,-5,-1,-2,-2,0
395806261935,-3,-5,-1,7,2,0,1,0
395806270177,-4,9,4,7,0,1,-1,-2
395806270177,0,7,4,2,0,-1,-2,-1
395806284328,1,-6,-3,-5,-2,-1,-2,-2
395806284328,0,-3,-4,-4,-1,-1,1,1
395806292625,1,-7,0,-1,-2,-1,-1,0
395806292625,-2,0,-3,-2,-1,1,0,-2
395806307593,0,17,3,2,-1,-1,-1,0
395806307593,-2,-7,0,1,0,0,0,-3
395806308454,-2,-8,2,-2,0,-2,0,-1
395806308454,-4,-1,-9,-2,-3,0,-2,-1
395806322005,4,17,10,1,-2,-2,-1,1
395806322005,-7,-31,-10,-2,-3,-1,-3,-3
395806330070,3,5,2,-3,-3,1,0,1
395806330070,-3,-11,-4,-2,0,-1,-1,-1
395806344348,-4,10,1,-1,1,-1,-1,-1
395806344348,-5,3,-5,-8,-2,-2,-1,-2
395806352657,0,3,-4,0,1,0,-2,0
395806352657,-1,-5,5,1,0,-2,0,-1
395806367625,-2,-8,4,1,0,2,-1,-2
395806367625,2,19,2,8,3,0,1,1
395806368357,-2,-10,-5,-6,-1,-2,-2,0
395806368357,-1,5,-1,-3,-3,-2,1,0
395806381987,-2,-10,-10,-9,-3,-3,-2,-2
395806381987,2,9,11,8,1,-2,-1,-1
395806390154,-1,-7,-6,3,2,-1,2,0
395806390154,-2,6,2,1,-1,2,-1,-2
395806404482,-2,-9,3,3,-1,-1,0,-1
395806404482,0,-4,1,-4,-3,-1,-2,-1
395806412628,0,1,2,-2,-2,-1,0,-2
395806412628,1,-4,-4,-3,-1,0,-1,1
395806427631,-3,-10,-5,5,1,0,0,-1
395806427631,8,64,12,-4,-3,-5,-2,-1
395806428397,-12,-59,-11,-4,-3,-1,-2,-4
395806428397,-4,-6,-3,-2,-4,-3,-1,-1
395806441967,2,0,-7,-2,0,0,0,-1
395806441967,-1,-13,-5,-7,-2,-2,-2,0
395806450099,4,21,0,0,-1,-2,-1,-1
395806450099,2,13,2,0,0,0,-3,-1
395806464351,-4,-7,-7,-6,-3,-4,-1,-2
395806464351,-4,-8,0,3,1,-1,0,-1
395806472700,1,9,-6,-11,-2,-1,-2,-3
395806472700,-3,-7,-4,5,2,-1,-2,-2
395806487457,0,6,4,-6,-3,-1,-2,0
395806487457,-2,-11,-3,1,1,3,1,1
395806488494,-1,-11,-4,1,-2,-1,-2,1
395806488494,5,37,11,0,-2,-2,-2,0
395806501841,-2,-6,-10,-6,-3,-2,0,-2
395806501841,-2,-14,-2,-6,-5,-4,0,-2
395806510150,-1,3,-1,3,0,0,-1,0
395806510150,-2,-12,-5,-3,-1,-1,-1,-3
395806524469,-1,9,3,6,-2,-1,0,-1
395806524469,-1,-26,-5,1,0,1,0,-1
395806532665,2,39,7,1,-3,-1,-1,-2
395806532665,-5,-27,-10,-11,-3,-1,0,-1
395806547526,2,11,-1,4,1,1,0,1
395806547526,-1,-13,5,0,0,-1,-1,-1
395806548323,-3,-10,5,7,1,-2,-1,-1
395806548323,-4,-1,-6,-6,-2,-1,-1,-2
395806561819,-1,-11,-2,1,1,1,0,-2
395806561819,-1,4,-7,-14,-6,-2,-1,0
395806570167,4,3,5,8,0,0,0,0
395806570167,-3,-1,2,1,1,-1,-1,0
395806584387,-1,-6,3,4,-1,-1,0,-2
395806584387,1,10,1,1,-1,-2,-1,-2
395806592667,-2,-2,-1,-7,-2,-2,-1,-2
395806592667,-1,5,-1,2,0,-1,1,0
395806607623,-2,-12,0,-3,-1,0,-2,-1
395806607623,-4,1,-5,-3,-2,-3,-1,-3
395806608387,-3,1,-3,-3,-1,-1,-2,-2
395806608387,0,-1,1,2,-1,1,-1,-1
395806621904,3,21,8,5,3,0,1,-1
395806621904,-1,-14,-3,4,0,2,0,-2
395806630189,-2,-5,-8,-10,-3,0,-1,-2
395806630189,3,9,14,15,1,-1,-1,0
395806644360,-4,6,-5,-8,-3,-2,-1,-1
395806644360,-2,-17,-7,-4,-2,-3,-3,-2
395806652665,0,-1,-8,2,-1,-1,0,0
395806652665,2,-7,8,-7,-2,-2,0,-2
395806667530,-3,10,-3,3,0,-1,-1,-1
395806667530,-1,0,2,7,2,0,-1,-1
395806668455,-1,-8,-7,-7,-2,-2,-1,0
395806668455,2,11,2,-3,-1,-1,-3,0
395806681870,-3,-21,-4,-1,-2,-3,-3,-3
395806681870,1,9,-3,-3,0,0,0,1
395806690076,0,0,5,-1,-1,0,0,0
395806690076,0,1,-4,1,-1,1,0,0
395806704469,-2,16,5,-1,-2,0,-2,-1
395806704469,1,-24,-7,-3,-2,-1,-1,-2
395806712683,-1,3,4,1,0,-1,0,0
395806712683,-2,-2,-1,1,0,0,-1,-1
395806727687,-2,-17,-10,-7,-3,-2,-2,-1
395806727687,5,18,7,5,3,2,1,3
395806728299,-8,-26,-6,-5,-4,-4,-4,-5
395806728299,-2,0,-12,-5,-2,-4,-2,-3
395806741996,-2,-5,14,3,2,0,-1,0
395806741996,4,18,7,4,0,-1,0,3
395806750102,0,-2,0,0,0,-1,1,0
395806750102,-4,-2,-5,-4,-1,0,-1,-1
395806764507,1,-4,-4,-4,-3,-1,1,-2
395806764507,-1,-3,-4,-2,-1,-1,0,-1
395806772617,-1,15,-1,-2,-3,-2,-2,-1
395806772617,-5,-10,-12,-13,-5,-4,-1,-3
395806787066,2,3,9,7,2,0,0,1
395806787066,-1,2,-4,8,4,2,-1,-2
395806795198,0,1,1,2,-2,0,-1,0
395806795198,0,0,-5,-6,-1,-2,-1,-2
395806801797,2,14,-2,-3,-2,-1,-1,2
395806801797,-8,-37,-5,-2,-2,-1,1,-1
395806809993,3,37,-2,-7,-3,0,-2,-2
395806809993,-1,-9,9,8,1,0,-3,-1
395806824489,-2,-1,-4,-1,0,-1,0,-1
395806824489,0,3,-2,-4,-2,-4,-1,0
395806832588,2,-9,0,0,2,-1,-2,0
395806832588,-1,10,4,-4,-2,-2,0,-2
395806846936,-2,-39,-8,2,1,-1,0,-1
395806846936,-3,30,-1,-6,-3,-1,-2,-2
395806855039,-3,-11,2,-1,-5,-2,-1,-3
395806855039,-2,13,-3,-4,-2,0,-2,0
395806861968,2,3,8,6,2,-1,-1,-1
395806861968,2,3,-2,0,0,2,-1,2
395806870809,1,-11,3,-1,0,-1,1,0
395806870809,-2,-3,-4,-4,-3,0,0,-2
395806884525,-3,2,-8,-5,-3,-2,-1,-2
395806884525,2,20,2,-1,-2,-1,-1,-1
395806893355,-6,-19,-2,3,1,0,-2,-1
395806893355,-2,-8,-1,1,-1,-2,-1,-1
395806906961,-2,-2,-1,-1,0,-1,-1,-2
395806906961,0,4,-4,-3,-1,-3,-3,-2
395806915865,0,5,4,2,-1,0,0,-1
395806915865,3,6,11,3,2,0,1,0
395806921867,-2,-5,-8,-7,-2,-1,0,-2
395806921867,0,4,-4,-2,1,0,1,-1
395806930833,-4,-10,-4,2,-1,-2,0,-1
395806930833,0,-7,-2,-3,-2,-2,0,-1
395806944387,-1,7,-2,-4,-3,-1,-1,-1
395806944387,0,-4,-2,-5,-3,-1,0,0
395806953370,-2,-12,-6,0,0,-1,-1,-2
395806953370,2,10,5,6,0,-1,0,-1
395806966967,0,2,0,-6,0,0,-1,-1
395806966967,-2,-8,-5,-3,-2,-3,0,0
395806975847,1,12,-1,-3,-1,-1,0,0
395806975847,-6,-18,-7,-5,-2,-1,-3,-3
395806990746,-1,-10,0,6,0,-2,0,-2
395806990746,-2,-4,1,-2,0,0,-1,0
395806992354,0,8,-2,-1,1,1,-1,-1
395806992354,0,0,2,2,1,0,0,0
395807004337,-3,-7,-2,0,-2,-2,-1,-1
395807004337,-2,-2,2,4,-1,0,1,0
395807013355,-2,1,2,-4,-1,0,-1,0
395807013355,-1,-1,-13,-1,-3,-2,-1,-1
395807026966,1,-3,2,1,0,1,-1,1
395807026966,0,3,-3,-4,-2,-2,-2,-1
395807035803,1,0,0,-1,-1,0,0,-2
395807035803,-3,-3,-4,-4,-2,-2,-2,-2
395807049343,-2,10,-2,4,0,-2,0,0
395807049343,1,-10,-3,-2,-2,0,-2,0
395807058320,0,5,0,-3,-2,-1,-1,-1
395807058320,-2,-3,-2,-1,-2,1,-1,0
395807064327,-2,-1,3,-4,-3,-2,-2,-2
395807064327,1,-1,13,12,4,1,-1,1
395807073327,2,1,-4,-1,-1,-1,-1,1
395807073327,-6,0,-7,-5,-3,-2,-2,-3
395807086935,-1,3,0,-3,-1,0,-1,-1
395807086935,-3,-2,-6,-3,-1,-1,0,-1
395807095826,2,-7,1,1,1,0,0,0
395807095826,-5,14,6,2,0,-3,-1,-4
395807110793,-2,-2,-3,-5,-4,-1,-2,-1
395807110793,1,2,0,3,-1,-2,0,-1
395807112393,-1,-3,-1,0,-1,1,-1,-1
395807112393,1,-7,0,2,0,1,-1,-1
395807124439,-1,0,-1,0,0,-1,-3,-2
395807124439,0,-6,-1,-5,-1,-1,0,0
395807133404,-4,6,-2,0,0,-1,-1,-2
395807133404,0,5,8,0,-1,0,-1,-1
395807146834,-3,-19,-3,-4,-3,-2,-2,-1
395807146834,0,1,3,4,-1,0,-1,-1
395807155805,1,4,0,9,4,2,2,1
395807155805,-2,-5,-1,-4,-2,0,0,0
395807170753,0,3,-4,0,-1,-1,-1,-1
395807170753,-2,-1,-2,-8,-3,-3,-3,-1
395807172428,-3,-3,-4,-5,-1,-3,-2,-2
395807172428,3,5,-2,-1,-1,0,-1,0
395807184359,-9,-23,-4,-2,-2,0,0,0
395807184359,0,2,-4,4,-1,-1,-3,-1
395807193336,0,7,7,-4,-3,1,-3,0
395807193336,2,-7,-2,0,0,-2,0,-1
395807206980,1,5,-2,-4,0,-2,-2,0
395807206980,-3,0,-3,-5,-2,-2,1,-2
395807215762,0,1,1,7,-1,-2,0,-2
395807215762,-3,-2,5,11,3,1,1,0
395807230637,0,9,0,1,-1,0,1,-1
395807230637,-1,-1,5,1,-1,-2,-1,-1
395807232267,-1,4,-2,-6,-3,-2,0,0
395807232267,-3,-12,-5,-6,-3,-1,-2,-1
395807244500,0,5,1,0,-1,2,1,-2
395807244500,-1,-5,-8,0,0,0,-1,0
395807253342,-2,-1,5,-4,-2,-2,-2,-2
395807253342,-1,8,1,-2,-2,-2,-1,-2
395807266914,-1,-12,-1,-1,0,-1,-1,1
395807266914,-2,-4,-4,-7,-3,-2,-3,-1
395807275812,1,-2,-4,-2,-1,-1,-1,0
395807275812,-3,-13,5,1,-1,0,0,-2
395807290777,2,7,1,0,0,1,0,-1
395807290777,-1,3,-6,-3,-1,-1,-1,0
395807292360,1,-11,4,1,-1,-2,0,0
395807292360,-2,-2,-14,-8,-3,-2,-2,-1
395807304350,-1,4,21,9,0,-1,-2,-1
395807304350,-1,-2,-3,10,2,1,1,2
395807313322,-2,-3,-8,0,-1,0,0,-2
395807313322,-1,2,1,-5,-3,-2,0,-1
395807326855,0,6,-12,-7,-2,-2,-1,-2
395807326855,0,-6,8,-4,-4,-3,-2,0
395807335918,-1,10,5,5,2,1,-1,-2
395807335918,-1,-4,0,-4,-1,-2,1,-2
395807350908,-3,-7,-10,-4,-3,-2,-1,-2
395807350908,1,3,2,1,0,0,0,0
395807358331,-2,-8,-9,-5,-1,-2,0,0
395807358331,-1,-2,4,2,1,2,-1,1
395807364366,-2,1,-2,-1,-1,-2,-1,-1
395807364366,1,12,-2,-3,-2,0,0,-2
395807373404,-4,-18,-1,-3,-1,-1,-2,-1
395807373404,0,10,2,-3,-1,-3,-2,-1
395807386853,1,-9,-11,1,0,-1,0,-1
395807386853,-2,-12,-8,-4,-2,0,1,0
395807395808,0,13,-1,-2,-1,0,-1,-1
395807395808,-1,-7,6,4,-2,-2,-2,-3
395807410672,-3,1,-18,-11,-2,-1,-1,2
395807410672,6,8,14,-4,-1,-2,-3,0
395807412374,2,3,11,5,-1,-2,-1,-1
395807412374,-5,-10,-7,-6,-2,-3,-2,-2
395807424285,-1,5,4,2,2,-2,0,0
395807424285,-2,-12,-11,-6,-2,-2,0,-1
395807433320,1,9,1,0,-1,0,0,1
395807433320,-1,-6,-1,2,2,0,-1,-1
395807446814,-1,2,10,4,1,1,0,-1
395807446814,0,-2,-2,1,2,1,-1,-1
395807456090,-2,1,-20,-11,-3,-4,-3,-3
395807456090,-1,3,6,12,1,1,1,-1
395807470769,0,0,21,8,2,0,-1,0
395807470769,-9,-5,-2,1,3,-1,-1,-2
395807472411,-2,-4,-5,-8,-3,-2,-3,0
395807472411,10,15,-5,-1,-1,0,-1,0
395807484509,2,-2,-7,-4,-3,-1,-1,-1
395807484509,-4,-6,4,0,-3,-1,-1,-1
395807493328,-3,-9,2,0,-3,0,-1,0
395807493328,-5,-3,-4,-4,1,2,0,0
395807506878,-1,2,0,5,0,2,0,0
395807506878,3,13,-6,-4,-2,-1,0,-1
395807515908,-3,-8,-2,4,0,0,1,-1
395807515908,-1,-4,3,-5,-2,-1,0,-1
395807530797,0,2,-3,1,-1,-1,-1,1
395807530797,0,3,-2,-13,-6,-2,0,-1
395807532278,-2,-15,22,47,13,4,2,1
395807532278,-5,10,-13,-7,-1,-1,0,-3
395807544277,3,-11,8,-3,-2,-2,-3,-2
395807544277,3,-4,-28,-9,-3,-1,-2,-2
395807553351,-2,9,14,-6,-3,-2,-2,-4
395807553351,5,0,8,3,0,-1,0,3
395807566940,5,-5,-20,-2,-2,0,-2,1
395807566940,-6,-3,4,4,0,-1,-2,-4
395807575835,-6,-7,-7,-14,-2,0,-1,-7
395807575835,-2,0,3,3,1,1,0,-1
395807590022,3,8,0,-4,-2,-2,-1,3
395807590022,-4,2,0,-1,-2,-1,-2,-1
395807596773,-4,2,-2,-7,-2,-1,-1,-5
395807596773,-4,-9,-6,4,1,-2,1,0
395807604426,2,29,16,3,2,0,1,1
395807604426,2,-7,-1,3,-3,-2,-3,-1
395807613354,-2,-8,-10,-12,-5,-2,-3,-3
395807613354,-7,0,2,-7,-2,2,-1,0
395807626937,1,-10,-21,-10,-1,0,0,1
395807626937,-7,-4,1,9,2,-3,-1,-1
395807635788,5,1,2,-7,-2,0,1,-3
395807635788,6,1,3,-2,0,0,-1,2
395807649477,-4,8,-3,3,0,0,-2,-2
395807649477,-4,-10,1,-1,-2,-1,-1,-1
395807658413,1,13,-21,-21,-6,-4,-1,-2
395807658413,0,-8,34,33,5,1,-1,-1
395807664265,-1,-10,-14,-4,-3,-1,-1,2
395807664265,8,12,5,0,0,-1,-2,-2
395807673414,-5,-13,0,0,0,-3,-1,-1
395807673414,0,9,-17,-17,-6,-4,-3,-4
395807686973,-1,4,23,25,6,-1,-1,2
395807686973,-2,-10,-4,-2,-2,1,0,-1
395807695855,-5,1,1,-4,-3,-1,-1,-2
395807695855,-5,-7,-7,-3,-1,-1,-1,-2
395807710147,4,-2,-8,-13,-4,-1,-1,0
395807710147,-3,-8,-17,0,1,-2,-1,-1
395807716931,2,17,27,0,1,0,-1,-3
395807716931,7,10,2,7,3,1,0,3
395807724256,2,15,-8,-7,-4,-2,-3,-2
395807724256,3,-2,5,6,1,2,0,2
395807733308,-3,-3,-9,-8,-4,-3,0,-1
395807733308,-6,-6,-7,-8,-1,-3,-1,-2
395807746985,12,-11,-8,-7,-3,-5,-1,0
395807746985,-25,11,9,-5,-1,-2,-2,-2
395807755783,12,9,3,11,2,0,-1,2
395807755783,-5,-10,-6,-9,-1,-2,-1,-3
395807770052,-7,-12,-7,-1,-2,-3,-2,-1
395807770052,8,9,-11,-1,-1,2,0,-2
395807776803,-1,-7,24,32,6,3,-2,0
395807776803,-9,5,0,-2,-1,-1,-1,0
395807784329,-1,-21,-12,-5,0,-1,0,-1
395807784329,7,17,-1,-5,-3,-2,-1,0
395807808979,-6,-8,2,-7,-6,-2,-3,-1
395807808979,0,0,0,-2,-3,-2,-2,-2
395807809766,-1,3,6,6,2,1,-1,0
395807809766,0,-14,-5,-9,-4,0,-1,-2
395807815801,1,3,-15,1,1,-1,0,-1
395807815801,5,3,14,3,2,0,-1,-1
395807830012,-7,-7,-5,-8,0,-2,0,-2
395807830012,1,-3,2,1,0,-2,0,-2
395807836797,-7,2,-6,-5,-1,1,1,-1
395807836797,7,4,5,3,-1,0,-1,0
395807844259,-8,-4,-8,2,1,1,-1,-2
395807844259,3,-3,5,-2,-1,-3,-1,0
395807853333,-2,-12,-4,0,-3,-2,0,-2
395807853333,0,12,-15,-6,1,-1,-1,-1
395807866765,-1,-14,13,11,1,2,1,0
395807866765,2,2,5,1,0,0,-1,-1
395807875772,-5,-23,-5,-8,-3,-2,0,-1
395807875772,-4,8,-11,-10,-3,-2,-1,-1
395807889966,3,11,0,-1,-1,-1,-2,0
395807889966,-6,-6,-2,-1,-2,-2,0,0
395807896738,-19,4,3,2,1,1,-2,-4
395807896738,-4,-14,-3,3,-2,-2,-1,0
395807913117,-1,29,7,-2,-1,-3,-1,-1
395807913117,-6,-28,-1,1,1,1,-1,-1
395807914740,5,8,-7,-7,-3,-3,0,2
395807914740,5,-8,-3,3,-1,-1,0,1
395807926821,-5,-6,-7,-2,-3,0,-1,-1
395807926821,1,1,-3,-4,-4,-2,0,-1
395807935762,1,0,5,2,2,0,0,-1
395807935762,0,-4,-1,1,0,0,0,0
395807949297,3,0,-2,-3,-1,0,0,0
395807949297,0,1,-5,-8,-3,-3,-3,-2
395807958226,4,10,1,12,4,1,-1,0
395807958226,-1,-17,0,-3,-3,0,-1,1
395807973145,-3,1,-15,-19,-8,-3,-2,1
395807973145,10,18,14,15,6,2,0,2
395807974794,-6,-10,-5,-12,-4,-2,-2,-4
395807974794,-3,0,-6,-4,-5,-3,-2,0
395807986744,1,-17,-5,-4,-1,-1,-1,-1
395807986744,-2,-2,-4,-4,-1,-2,-3,-1
395807996019,7,4,0,-3,-1,-1,-2,-1
395807996019,-7,2,-6,-3,-1,0,0,-2
395808009992,4,-5,7,7,0,-3,-2,0
395808009992,-2,13,-1,0,-2,-1,0,0
395808016772,2,0,7,1,-3,-3,-2,0
395808016772,-1,-1,-5,-4,0,-1,-1,-1
395808033142,4,1,-1,5,0,1,-1,0
395808033142,-1,-3,1,2,-1,-1,0,-1
395808034753,-3,-4,-10,-9,-2,0,-1,-2
395808034753,3,12,1,-2,-1,0,-1,0
395808046788,-4,3,6,1,-2,-2,-2,-3
395808046788,0,-7,-4,-3,-3,-1,-1,-1
395808061744,-1,-1,1,-3,-3,0,0,0
395808061744,2,-1,-4,-9,-4,-3,-1,-1
395808069992,-4,3,2,21,6,4,0,0
395808069992,-2,8,3,-1,0,0,-2,-2
395808084361,3,-4,-2,-1,0,-2,-1,0
395808084361,-5,-21,0,1,0,0,0,-1
395808093093,1,10,-2,-6,0,-1,0,-1
395808093093,-1,-12,-3,1,-1,1,-1,0
395808094722,5,4,2,3,0,1,-1,1
395808094722,0,13,3,2,2,1,-1,-3
395808106767,-1,-17,-4,-6,-3,-1,-1,1
395808106767,-1,-5,0,0,0,0,-1,0
395808115766,2,3,1,-1,-3,-1,0,-1
395808115766,0,1,3,7,1,2,0,-1
395808130008,-1,-3,-5,-5,-1,0,-2,-1
395808130008,1,1,1,-4,-4,-2,-1,-1
395808153760,-10,-2,-1,6,2,0,0,-1
395808153760,0,2,0,-2,1,-1,-2,-1
395808154613,-2,2,2,0,-1,0,0,0
395808154613,-7,-13,-7,-2,0,-1,-1,-2
395808156201,0,-8,-3,-7,-2,-2,0,0
395808156201,15,1,4,12,0,0,-1,0
395808166952,-5,-1,-3,-5,-2,0,-2,-1
395808166952,-9,7,-2,-3,-2,-2,-1,-2
395808175894,7,-9,-3,-1,-1,1,1,-1
395808175894,-3,-2,-3,-3,-2,-2,-1,-2
395808189980,3,3,1,-4,-3,-4,-3,0
395808189980,12,9,5,3,-2,0,1,2
395808196987,-33,-14,-5,0,-2,1,-3,-4
395808196987,0,-7,-1,-1,-1,-1,0,1
395808213239,8,-4,-2,0,0,-1,1,0
395808213239,-23,-3,-1,-3,-1,0,-1,-3
395808214834,10,16,0,0,-1,-4,-1,0
395808214834,-1,-12,-1,-1,-1,-1,-1,0
395808243135,-13,6,1,-2,-2,2,0,-4
395808243135,2,-2,-3,-3,-2,-2,-2,0
395808244751,6,-12,-4,-3,-3,-1,0,0
395808244751,-2,3,9,5,1,-1,-1,-1
395808250087,-2,-3,-5,6,1,0,-1,0
395808250087,-1,2,3,0,1,0,0,0
395808256955,-1,4,0,-4,-1,-2,0,-3
395808256955,0,-5,-6,-3,0,-1,0,1
395808273277,-3,-2,-2,-5,-2,0,0,0
395808273277,5,-1,-7,-4,-1,-2,0,-2
395808274764,0,-1,2,1,-1,-1,0,0
395808274764,8,5,2,-4,0,1,0,0
395808286975,1,4,-1,-1,-2,-1,-1,-2
395808286975,-1,-11,-2,-1,-1,0,-2,-1
395808295787,8,20,5,-2,0,-1,0,0
395808295787,-13,-16,-9,-2,-3,-1,0,-2
395808310146,-3,0,3,0,-3,0,-1,-2
395808310146,2,-17,-1,0,0,1,-1,-1
395808316922,-1,18,2,1,0,-1,-2,1
395808316922,-7,-5,-4,-6,-4,-1,0,-2
395808333325,-5,-4,4,-4,-3,-3,0,-1
395808333325,6,9,2,6,0,-2,-1,0
395808334956,-15,-18,-2,-2,0,0,-1,-1
395808334956,38,4,-5,-5,0,0,-2,-3
395808346950,20,0,-16,-4,-2,-3,-1,-1
395808346950,2,3,16,1,1,1,0,-2
395808363448,-17,-11,-5,-4,-2,-2,-1,-2
395808363448,-31,22,-3,-3,-3,-2,-1,0
395808370066,-5,-6,2,-6,-1,-3,0,-1
395808370066,0,0,-12,-5,-3,-3,-1,0
395808376788,0,-4,-1,2,0,-1,0,-1
395808376788,-5,0,1,-1,-2,-3,-1,-1
395808393827,0,10,-3,0,-2,0,-2,0
395808393827,-6,-11,-4,-1,0,-1,-1,-1
395808395427,8,7,9,-1,-1,-2,-1,-1
395808395427,-5,-7,-3,-3,-2,0,0,0
395808406915,-10,-3,-8,-1,2,1,0,-2
395808406915,3,4,8,11,2,2,3,1
395808415861,5,2,-5,3,0,0,0,-2
395808415861,-3,-1,-2,0,0,-1,-1,-2
395808430047,-4,-8,0,-5,-2,-2,-1,-1
395808430047,-1,2,-5,-1,1,0,-3,-2
395808444324,3,-2,2,-1,0,0,-1,-2
395808444324,-1,2,3,0,-1,-1,0,0
395808453307,2,0,-2,-1,-2,-2,-2,2
395808453307,2,-4,-1,-2,-2,-3,-1,0
395808454817,0,-4,-4,-1,-2,0,-3,0
395808454817,8,1,2,-1,-1,-1,0,-1
395808466939,-24,3,5,6,1,0,-1,-4
395808466939,-2,-4,-5,-9,-3,-2,-2,-2
395808475910,1,-5,-8,-4,-3,-1,-1,-2
395808475910,0,1,4,2,-2,-2,-1,-2
395808490151,7,-9,-4,-2,0,-1,0,0
395808490151,-4,0,-4,1,2,0,1,-1
395808496938,-4,-1,-2,-4,-2,-1,0,-1
395808496938,-8,-1,-4,3,2,1,-1,0
395808513290,-3,-8,-2,-6,-4,-2,-2,1
395808513290,-1,5,12,13,0,-1,-2,-1
395808514728,3,-2,-16,-6,-3,-2,-2,0
395808514728,-2,2,29,11,2,-1,0,-1
395808526913,3,-4,-9,-6,-1,0,-1,-1
395808526913,3,-4,0,-7,-3,0,-1,-2
395808535745,-5,3,-2,0,-1,-1,0,-1
395808535745,-1,-4,-13,-5,0,-2,-1,-3
395808550063,1,2,5,0,-3,-3,-1,-1
395808550063,4,0,-4,-7,-2,0,-1,-1
395808556946,0,1,5,5,-1,-3,0,0
395808556946,2,-1,-9,-4,-2,-2,-2,-2
395808573276,1,-5,-2,3,2,0,0,-1
395808573276,-1,0,-2,-2,-3,-2,0,1
395808574739,1,-10,-2,-4,-3,-1,0,0
395808574739,-2,2,-1,-1,-2,-1,-2,-1
395808586935,1,2,0,-1,1,1,-1,-1
395808586935,-5,-4,-4,-3,-1,-1,-1,0
395808595929,2,3,3,-1,0,0,-1,-2
395808595929,-3,-4,-7,-9,-5,-1,0,0
395808610097,0,1,-8,3,1,1,-1,0
395808610097,-3,0,5,3,0,-1,0,-3
395808616889,-1,-1,0,-1,1,0,-2,-1
395808616889,-2,-1,-8,-5,-1,-1,-1,0
395808633281,1,2,2,-3,-4,-4,-2,-2
395808633281,1,-5,-5,-2,-3,-2,-1,-1
395808634789,1,3,-5,0,1,1,-1,0
395808634789,-1,-3,-1,1,0,-1,-1,0
395808646979,-1,4,0,2,0,-1,1,-1
395808646979,-1,-4,0,-1,-3,-2,1,0
395808656192,-1,1,2,-3,-1,-1,-2,-2
395808656192,7,-2,-6,-7,-2,-4,-1,0
395808670123,-20,1,10,8,2,2,-1,-1
395808670123,-1,-1,-6,-4,1,0,0,-2
395808676885,3,-2,5,-1,-3,-1,-1,-1
395808676885,-2,-3,-1,0,0,1,0,-3
395808692426,5,-3,-3,-6,-2,-3,-1,-2
395808692426,-1,9,-7,0,-2,-2,-2,-2
395808700140,-3,3,4,0,0,1,0,-2
395808700140,-3,-2,-2,2,1,0,0,1
395808706851,5,-1,8,2,-1,0,1,0
395808706851,0,-10,-8,-2,0,0,-1,0
395808715751,1,4,-2,-3,-2,-1,-1,-1
395808715751,-1,-3,-2,-1,-5,-1,-1,0
395808730020,-1,-4,-1,-6,-4,-2,-1,0
395808730020,-1,-2,7,16,3,-1,0,-1
395808736828,-1,2,-9,-1,-2,-2,-1,-1
395808736828,0,5,13,-1,-1,-1,-2,0
395808752605,-4,-9,-3,-2,-1,1,-1,-3
395808752605,4,3,-2,-8,-3,1,-1,-1
395808759358,3,-1,-10,-5,-2,0,-3,-1
395808759358,-4,6,27,17,3,-1,-1,-2
395808766875,0,-2,-5,-3,-1,-2,-1,0
395808766875,-1,1,0,-6,0,-2,-2,-1
395808775881,0,-7,0,5,1,1,1,-1
395808775881,0,-4,-8,-4,-1,-1,-1,-2
395808790096,1,4,3,4,0,0,0,0
395808790096,-3,-5,-12,-1,-2,-3,0,-1
395808796940,0,-10,26,-2,-3,1,-1,1
395808796940,1,1,0,2,-1,-1,-12,-2
395808812626,6,39,8,0,-1,-1,7,-3
395808812626,-3,-12,-4,-7,-2,0,1,0
395808819431,-12,-55,-1,5,2,2,2,-2
395808819431,9,45,-1,1,-1,0,19,4
395808826913,1,-17,-15,-3,-3,-16,-26,-23
395808826913,-7,-1,32,-1,1,-15,0,10
395808835733,-18,-6,-76,-11,-3,19,2,-7
395808835733,1,-29,5,0,0,5,11,7
395808850245,4,-9,5,4,-2,6,0,-4
395808850245,-17,-7,-4,-2,0,-24,8,-7
395808856858,3,-19,8,6,1,-5,-5,2
395808856858,-9,1,16,-5,-2,-3,-6,-10
395808872617,-3,-8,-34,-7,-3,1,6,6
395808872617,20,-2,3,-1,0,9,-9,-2
395808879278,-8,20,3,-1,0,-6,0,2
395808879278,1,8,-10,1,0,-2,-15,-5
395808895777,10,0,17,6,1,-6,28,5
395808895777,-7,-7,-9,-7,-4,11,-31,11
395808897343,9,31,-2,-18,-6,-1,-1,-4
395808897343,-3,5,2,16,2,-1,3,-1
395808910067,-18,-57,-9,-3,1,-1,-15,4
395808910067,30,47,22,9,2,6,12,-7
395808916891,5,29,-21,-10,-5,-4,6,2
395808916891,-7,-34,3,-1,-2,-7,-16,-2
395808932573,1,10,7,2,3,6,9,3
395808932573,3,-18,-11,0,-2,4,8,-3
395808939202,-6,18,9,-4,-2,-5,8,-6
395808939202,-1,-10,-22,-7,1,-3,-18,-2
395808955641,2,5,7,4,1,2,-5,0
395808955641,-9,-13,-5,-2,0,0,2,-3
395808957214,-11,43,27,8,-1,-7,-6,0
395808957214,-3,-8,-16,-6,-3,2,7,-1
395808970004,-2,-4,2,-1,-2,0,0,-1
395808970004,-6,-2,-5,-4,-2,0,-6,0
395808976816,19,-19,-2,3,1,0,6,1
395808976816,-30,-1,13,1,0,1,2,-4
395808992580,4,16,5,-3,-1,-1,-9,1
395808992580,-6,-16,-18,-1,0,0,7,-7
395808999443,-5,-3,91,16,6,0,-7,-1
395808999443,19,7,-75,-20,-7,0,3,3
395809015722,-5,-3,-7,-6,-1,-3,-2,-2
395809015722,-1,12,-8,-1,-1,-1,0,-3
395809017207,-8,-29,1,4,-1,-2,-4,0
395809017207,5,1,15,-4,-1,-2,1,2
395809030113,-3,10,-8,-2,-2,1,1,-2
395809030113,-1,-3,8,0,0,1,-1,-1
395809036831,9,0,-7,-1,1,-2,-5,1
395809036831,-3,-12,-3,2,0,0,8,-1
395809052586,5,28,9,2,-1,0,-3,-1
395809052586,-7,-6,5,-3,-5,-3,-2,-3
395809059214,3,-6,-23,-5,-2,0,-1,1
395809059214,-1,-11,15,13,4,2,0,-4
395809075748,-2,5,8,-7,-3,-3,-3,0
395809075748,-3,-4,-4,-5,-3,-1,4,-1
395809077328,12,-2,-18,-2,-1,-1,-2,0
395809077328,-9,4,-2,-9,-5,0,1,-2
395809090018,4,-16,12,10,4,1,-4,1
395809090018,-16,12,9,18,3,1,0,-1
395809096813,13,-2,-7,-3,-1,-2,-1,0
395809096813,0,-5,10,-3,-2,-3,-4,-3
395809112992,-1,5,3,-6,-3,-3,0,-1
395809112992,5,2,-18,-8,-2,-1,-1,-1
395809120783,-12,-8,9,0,-2,0,-3,-3
395809120783,2,2,-22,-9,-3,-1,-1,-1
395809136400,-2,-8,9,12,2,3,3,0
395809136400,5,8,-2,1,-1,-2,-1,2
395809137892,-6,-5,-7,-6,-2,-2,-2,-2
395809137892,12,5,-3,-10,-5,-3,-2,1
395809150060,3,1,-12,-4,-1,0,-1,-1
395809150060,-8,-16,-3,-1,-1,0,-1,-1
395809156899,-2,18,1,1,-1,0,-1,-2
395809156899,-3,-5,6,0,-3,-2,-1,-2
395809172496,-3,-9,-7,0,-1,-2,-1,0
395809172496,3,-1,-1,-4,-3,-3,-2,0
395809186848,-6,4,-6,2,0,0,0,-1
395809186848,2,1,16,5,2,1,3,-1
395809195367,-11,-7,0,0,-2,-1,-2,-1
395809195367,-2,5,-2,-4,0,0,0,-2
395809203237,14,-16,2,-2,-2,-2,-7,-1
395809203237,-9,-9,-13,-2,-4,-1,9,0
395809210396,0,-5,-3,-4,-2,-2,-1,-1
395809210396,10,6,-4,-8,-1,0,0,0
395809218230,-21,-1,19,13,4,1,-3,-1
395809218230,1,-7,-2,-2,-2,-3,-8,-4
395809232576,-3,3,-8,-5,-2,-3,1,0
395809232576,3,-6,-3,-4,-3,-2,-1,-1
395809239176,2,-4,-4,-1,0,-1,2,2
395809239176,-4,-1,-4,3,2,2,0,0
395809255597,-1,-2,6,6,-1,0,-1,-2
395809255597,-1,-9,4,-1,-3,-1,-4,-3
395809257288,2,-1,-15,-8,-2,-1,2,1
395809257288,0,3,6,-1,1,1,1,0
395809270029,-1,-4,-9,0,0,1,-1,0
395809270029,-3,10,9,5,1,0,0,0
395809276880,-1,-9,-3,-3,-3,-1,-1,0
395809276880,4,-2,-8,-7,-4,-2,-3,1
395809292566,1,13,16,10,0,0,-1,-2
395809292566,8,-6,-2,-3,-1,0,0,0
395809299374,-12,15,-2,-5,-2,-1,-2,-3
395809299374,3,7,9,2,0,-1,-4,-1
395809315703,-2,-1,10,4,0,-2,1,0
395809315703,0,2,-8,-3,0,0,1,0
395809317207,0,-12,-11,1,-1,0,-2,-1
395809317207,3,2,12,1,-1,-2,0,1
395809330110,-4,0,-22,-12,-4,-2,-1,-1
395809330110,0,4,0,-1,0,1,-2,-2
395809336900,-6,-14,-10,2,-2,0,-1,-1
395809336900,6,12,8,0,1,0,-1,-1
395809352642,-1,0,-1,-6,-3,-2,-1,0
395809352642,-8,-23,-8,4,1,1,0,0
395809359360,-1,24,12,-5,-3,0,-1,-2
395809359360,5,10,5,2,-1,-1,-1,0
395809375636,-2,-14,-11,-11,-1,-1,-2,-2
395809375636,-5,4,13,20,2,1,0,0
395809377205,6,-6,-16,-12,-4,1,0,-1
395809377205,-8,8,21,11,3,0,-2,-3
395809389270,0,3,-8,-7,-2,-1,-2,-1
395809389270,-2,-2,-9,-8,-3,-1,-2,-1
395809398253,7,-21,4,3,0,-2,1,0
395809398253,-18,24,-12,-5,-3,-1,-1,-2
395809412551,2,-10,-1,-1,-2,-2,-2,-3
395809412551,-1,4,10,1,-2,-2,-1,0
395809419275,4,1,-4,3,2,0,0,1
395809419275,-5,-27,-14,-8,-2,-2,0,1
395809435758,1,-3,2,5,0,1,-2,-2
395809435758,-4,10,-1,-5,-1,-2,-3,-2
395809437338,1,-2,3,0,-1,-1,-1,-1
395809437338,6,-4,-4,-1,-1,-1,0,0
395809458147,3,6,2,1,-1,-2,-1,0
395809458147,-3,-5,-3,-4,-2,-1,-3,-2
395809459663,2,6,-6,-4,0,0,0,0
395809459663,-3,1,9,4,-1,0,-2,-2
395809472980,3,4,7,3,1,0,-1,0
395809472980,-2,1,-4,-4,0,-2,0,-1
395809480740,-2,-3,-2,-4,-3,-1,-2,-2
395809480740,-1,-1,2,9,3,0,-1,-2
395809495544,-6,-7,-8,-3,-3,0,-1,-1
395809495544,3,2,-2,-3,-1,-1,-1,0
395809497154,-6,-1,2,1,2,-1,0,-2
395809497154,6,-15,-13,-6,-3,-1,-1,-3
395809509358,0,7,3,-1,1,1,-2,0
395809509358,-4,-4,2,2,-1,-1,-1,-1
395809518280,-2,1,-6,-1,-1,-3,1,-2
395809518280,2,-4,11,-2,-2,-2,0,0
395809532602,-2,0,-3,-1,-2,-3,-1,-1
395809532602,0,-16,-6,-4,0,1,0,1
395809539313,0,7,3,2,1,2,-1,0
395809539313,2,9,7,-1,-3,-1,0,0
395809555613,-4,-1,-9,-3,-3,-1,0,0
395809555613,3,14,5,-2,-3,-3,-1,-1
395809557183,-6,-15,-3,3,-1,-1,-2,-1
395809557183,5,-2,-5,-1,0,-1,-1,0
395809569441,-2,-7,2,-1,0,0,0,-2
395809569441,-2,2,2,-6,-3,0,0,0
395809578237,-3,8,-5,13,3,1,0,1
395809578237,0,-1,0,-5,-3,0,-2,-1
395809592555,-3,-6,-14,-5,-2,0,-1,-1
395809592555,-1,4,21,3,0,-2,-2,-3
395809599227,3,6,-1,-5,-3,-3,0,-1
395809599227,-5,-12,-3,0,3,0,0,-1
395809615749,-1,-2,4,-1,-3,-2,0,-1
395809615749,0,0,1,1,-3,-3,-2,0
395809617282,5,10,-2,-6,-3,-1,0,1
395809617282,-4,-11,-10,0,1,0,-1,0
395809629363,0,6,7,0,-2,0,-1,-2
395809629363,-4,-10,-11,-1,1,1,1,-2
395809638247,10,1,3,0,-1,-4,-1,0
395809638247,-21,-3,-6,-3,-2,-2,-2,-2
395809652439,2,-3,-4,1,1,-2,-2,1
395809652439,-3,2,-5,-4,-3,-1,-1,-1
395809659346,-2,-7,-3,-6,-3,-1,-1,-1
395809659346,4,3,5,10,1,0,1,-1
395809675027,-1,-2,-2,1,-1,1,0,1
395809675027,-3,3,-7,-3,-3,-1,-2,0
395809681877,0,-7,2,-2,-1,-2,-3,-1
395809681877,1,2,-2,-8,-4,-2,-1,0
395809689273,-6,-6,1,0,0,1,-1,-3
395809689273,9,2,-2,1,0,-1,-1,-1
395809698234,-4,0,3,-2,-1,-2,0,0
395809698234,-2,-3,-4,-5,-2,-2,-1,-1
395809712465,5,3,-8,2,0,-1,-1,1
395809712465,-4,-2,5,-2,0,0,0,-3
395809719361,1,10,-2,0,-1,0,-1,0
395809719361,4,-5,15,-1,-2,-1,0,-1
395809735073,-11,4,-10,-6,-3,-3,-2,-1
395809735073,5,7,0,-3,2,0,0,1
395809741730,1,-12,1,3,-2,1,0,0
395809741730,15,16,-6,-4,-1,-1,-1,1
395809749994,-7,-8,-1,-2,1,0,0,-1
395809749994,0,-6,-3,-3,-2,-3,-1,0
395809758276,-8,1,4,3,-1,-1,-2,-1
395809758276,5,2,-6,-1,1,0,0,-1
395809772612,3,-1,3,-1,-1,-2,0,-1
395809772612,-3,-2,-5,1,0,-1,-2,-1
395809779304,1,-4,0,-4,-1,-1,-1,0
395809779304,-7,0,-6,1,-3,-1,-1,-1
395809795000,0,-12,-3,1,0,0,0,-2
395809795000,0,18,10,-2,-2,-1,-1,-1
395809801874,0,1,-2,1,-1,-1,-1,-1
395809801874,-7,-13,-11,-10,-2,-3,-1,-1
395809809288,0,3,1,9,2,-1,-1,0
395809809288,2,-5,-4,-3,0,2,0,0
395809818230,1,1,16,-1,-1,-1,-1,-3
395809818230,-7,-6,-4,-2,-1,1,0,-1
395809832515,8,1,1,-8,-4,-2,0,0
395809832515,1,-5,-14,-2,1,2,-1,-1
395809839201,-3,-4,-5,0,1,-2,0,-1
395809839201,-2,6,-7,3,-1,-2,-2,-1
395809854881,3,-1,19,1,0,0,0,2
395809854881,-4,4,-2,1,-1,-2,0,-1
395809861714,4,0,-4,-1,0,-1,0,-1
395809861714,-12,-4,-1,-1,-1,-2,-2,-2
395809878083,2,3,-3,1,0,-1,-2,-1
395809878083,1,-4,-8,0,-1,-1,-1,0
395809879670,-14,-19,-5,-6,-2,-3,-2,-1
395809879670,6,5,4,2,0,-1,-1,0
395809892956,1,10,5,-1,1,0,-1,-1
395809892956,-5,-1,8,1,0,-1,-1,-3
395809899369,1,-3,-14,-2,-1,-1,0,-1
395809899369,-1,2,9,1,0,0,1,0
395809914982,2,0,0,0,0,0,-2,0
395809914982,0,-11,-4,0,-2,-1,0,-1
395809921839,0,5,-4,-4,-2,-1,-2,-1
395809921839,-6,-3,1,-2,-1,-1,-2,-1
395809938250,-1,-1,0,12,-1,-1,1,0
395809938250,-3,0,5,-1,0,-2,-1,-1
395809939739,0,0,-4,-1,-4,-2,-2,-2
395809939739,2,-2,-4,-3,-1,-2,-2,-2
395809952592,-1,0,-15,-9,-4,-2,-2,-1
395809952592,-2,-11,-1,-1,-3,-2,-3,-2
395809959243,0,17,14,3,0,2,0,0
395809959243,6,-3,-2,-1,-1,0,1,0
395809974989,-13,-9,-5,-2,-3,-1,1,-2
395809974989,-3,16,2,3,2,2,1,-1
395809981736,1,-29,-8,-7,-2,-2,-1,-2
395809981736,6,3,-2,2,-2,-1,-2,-2
395809999700,-23,-4,-6,-4,0,0,-2,-2
395809999700,6,-4,2,-3,-2,-2,-2,0
395809999904,1,6,0,1,0,0,1,-2
395809999904,-4,-3,-2,1,-1,1,-2,-1
395810012415,4,0,-3,-3,-3,0,-1,-2
395810012415,-2,-4,-6,-2,-1,-2,-1,-2
395810019308,-1,5,5,2,0,-2,-1,-1
395810019308,-3,-7,-6,-7,-2,-2,-1,-1
395810034965,2,4,5,6,0,0,-1,-1
395810034965,-3,2,7,0,-3,-2,-1,-2
395810041892,6,-9,-6,-5,-4,-2,-1,0
395810041892,3,14,-5,2,3,1,0,1
395810057301,5,0,11,-6,-4,-2,-1,-1
395810057301,-9,-7,-7,0,-1,0,2,0
395810065696,-2,-1,-2,4,1,0,0,-1
395810065696,-4,-2,2,-2,-1,-1,-2,-1
395810072491,11,3,-6,-4,0,-1,-3,-1
395810072491,-1,-8,-5,-2,0,1,-1,-3
395810079360,-8,-8,-7,-5,-5,-3,-1,-3
395810079360,6,4,0,2,1,-1,1,1
395810095008,-3,-10,-4,-2,0,0,-2,-1
395810095008,2,15,6,-4,-4,-2,-2,-2
395810101810,-2,2,-2,1,1,0,-1,-1
395810101810,-5,-8,0,2,0,-2,-2,-1
395810118114,1,-1,0,0,-1,-2,0,0
395810118114,1,-7,-9,0,3,-1,-1,0
395810119707,-4,1,1,0,-1,-2,-1,-1
395810119707,-5,-5,-2,-2,-3,0,-2,-1
395810132628,3,-1,5,3,3,1,0,1
395810132628,-9,-4,-5,0,0,0,0,-2
395810139213,3,5,-1,-1,0,0,-2,2
395810139213,-2,-1,4,1,-2,-2,-1,-2
395810154879,-8,-4,-8,-4,-1,-1,-2,-1
395810154879,0,-2,-7,-1,-1,-1,-2,0
395810161711,0,-4,10,0,-1,0,-1,0
395810161711,1,-4,-10,-6,-2,-2,-2,0
395810178105,0,1,16,3,-1,0,0,-2
395810178105,2,-1,-5,-1,-1,0,-1,1
395810179655,-6,-1,-11,0,0,-1,-1,-3
395810179655,0,0,8,-2,0,0,0,-1
395810192515,2,2,-4,-5,-2,0,1,0
395810192515,-3,-7,-5,-9,-4,-1,0,-2
395810206856,-3,-1,4,10,2,-2,-1,-1
395810206856,-1,-3,-2,1,0,0,0,-1
395810223210,5,-22,-21,-4,-1,-1,1,0
395810223210,-9,39,32,4,-2,-4,-3,-1
395810224758,4,1,-12,-9,-1,-2,-2,-2
395810224758,-3,-5,-5,-2,0,-3,-1,-3
395810238201,0,5,2,1,-2,-1,1,-1
395810238201,-1,-21,-14,-5,-1,-1,0,0
395810239678,-3,-2,0,-1,-2,-1,-1,-2
395810239678,1,4,1,1,2,-1,1,0
395810252544,1,2,-6,-5,-1,-1,-4,0
395810252544,-8,-13,-5,0,-1,0,1,0
395810259350,17,22,15,1,-1,-2,0,4
395810259350,0,-4,-5,-1,-2,1,0,0
395810274995,-4,0,-1,3,0,-1,-1,-2
395810274995,7,-4,0,4,1,1,1,1
395810281845,-4,-2,4,2,0,2,0,-1
395810281845,-13,-4,-9,-6,-3,-4,-2,-2
395810298088,3,3,2,-2,0,-1,-1,0
395810298088,-2,1,-1,0,-3,-2,0,-2
395810300654,-4,-5,-3,-1,1,0,0,-2
395810300654,1,2,1,-1,0,-2,-2,-2
395810312506,-7,-2,0,-3,-3,-1,0,-1
395810312506,-2,-4,-1,-9,-3,-4,-3,-2
395810319422,-2,1,-5,18,3,0,1,0
395810319422,12,-7,4,-2,-1,0,0,1
395810334865,-8,13,20,-2,-3,-2,-3,-4
395810334865,4,-2,-8,-3,-2,0,0,-1
395810341829,-3,-1,-4,-10,-3,-3,-1,0
395810341829,-1,0,6,3,-2,1,-3,-1
395810358830,1,-7,-13,-1,0,0,0,1
395810358830,3,0,0,-2,0,-1,0,-1
395810360433,-6,-5,0,-4,-1,-1,0,-1
395810360433,-2,-3,-2,2,2,0,0,0
395810371879,4,1,3,-3,-2,-1,-2,0
395810371879,-9,-6,-2,7,2,1,-2,-1
395810380698,-1,-5,-2,-4,-1,0,0,-1
395810380698,-1,-3,-8,-4,-4,-1,0,1
395810395000,2,5,9,3,2,-1,0,1
395810395000,5,1,8,0,-2,-1,0,2
395810401861,-3,-6,-9,-1,-2,-2,-1,-2
395810401861,-4,1,-4,-3,1,2,-1,-1
395810418145,-5,-5,-4,-1,1,-1,1,-1
395810418145,14,-4,-6,-6,-1,-1,-3,0
395810419647,-12,-8,6,5,0,1,0,-2
395810419647,11,23,14,6,1,0,0,3
395810431798,-2,-14,-9,-5,-1,-1,-1,-2
395810431798,2,-8,-10,4,2,0,1,1
395810440711,0,-2,13,-5,-2,0,-3,-1
395810440711,-2,0,-3,-3,-2,-1,0,-2
395810454917,1,-2,-4,0,-1,0,1,0
395810454917,-7,4,-5,-7,-2,-3,-1,-2
395810461773,4,-3,-9,-3,-1,0,0,1
395810461773,-6,-16,-1,-2,-1,-2,-2,-1
395810478246,1,10,0,0,-2,0,-2,1
395810478246,-2,-6,0,-1,-2,-2,-2,-2
395810479776,2,2,-6,-4,-2,0,-1,0
395810479776,-4,1,6,2,-1,-2,0,-4
395810492282,-3,-5,-9,-5,-2,-1,-1,-1
395810492282,5,1,3,0,-1,0,-2,-1
395810500728,-1,4,4,-1,-1,-1,-3,-1
395810500728,-1,-2,-8,-4,-1,-2,-2,0
395810515014,-4,1,1,0,0,-1,-2,-1
395810515014,10,-1,7,5,2,1,-1,0
395810521895,-12,-24,-25,-8,-2,0,-1,-2
395810521895,6,37,31,2,-2,-2,-1,-1
395810537512,-6,-17,-11,-4,-2,-1,-1,-2
395810537512,-2,-6,-21,-9,0,0,0,-2
395810538161,2,1,16,20,6,1,1,1
395810538161,1,-13,-11,-3,-3,-2,-1,-2
395810559938,12,5,4,-1,-2,0,-1,1
395810559938,-14,-11,-9,-8,-3,-4,-1,-2
395810560724,7,0,-7,-9,-4,-5,-2,1
395810560724,-10,-6,-6,-1,0,0,-1,-1
395810575687,3,8,3,3,1,-1,-1,1
395810575687,0,-10,-3,0,-1,-1,0,0
395810590009,5,17,14,-2,-3,-1,-2,0
395810590009,0,-1,2,2,1,1,0,-1
395810596898,-4,-3,-3,-3,0,1,-1,-3
395810596898,-2,7,8,4,1,0,-1,-1
395810604325,-2,3,-1,-3,-1,-3,-1,-2
395810604325,0,-13,-14,-4,-2,-2,-3,-2
395810620053,-9,-18,-1,0,-1,-2,0,-2
395810620053,-2,35,7,1,-3,-1,-4,0
395810620640,3,11,7,0,3,0,0,-1
395810620640,-5,-13,-10,-2,-1,0,-1,1
395810635738,-5,-3,-11,3,2,0,-1,0
395810635738,-3,-9,17,3,1,0,-1,-1
395810641864,0,-1,7,-3,-5,-4,-2,-2
395810641864,5,39,3,-3,1,0,-1,2
395810656874,10,-8,1,2,-3,-3,-2,-1
395810656874,-2,-11,-6,-1,-1,0,1,0
395810664273,-4,-6,-13,-5,-2,0,0,-1
395810664273,3,-8,7,4,0,2,-1,1
395810679934,1,9,-3,-1,-1,-1,-1,-1
395810679934,-3,9,0,0,-1,-1,-1,-1
395810680597,4,1,-1,-2,0,-1,-1,-2
395810680597,-5,-10,-6,-1,-2,-2,-1,-1
395810695674,-6,-1,-4,-1,1,0,-1,-1
395810695674,2,-13,11,3,1,-1,-1,-1
395810701900,-9,-51,-34,-2,0,-1,-1,0
395810701900,8,85,48,1,-1,-3,-3,-1
395810716807,-6,-11,-9,-3,-2,0,-1,-1
395810716807,2,-8,-11,-3,-2,0,1,-2
395810724254,2,-4,-1,-4,-3,-2,0,-2
395810724254,-7,-29,-20,0,1,-3,-1,-2
395810739965,1,9,19,3,0,-2,0,0
395810739965,0,-2,-2,-2,-2,-1,-1,0
395810740631,-1,4,-4,-6,-6,-5,-5,-3
395810740631,-3,-22,-5,3,-1,0,0,-2
395810755669,-1,14,7,-3,-1,0,0,-1
395810755669,-4,-48,-21,2,2,0,-1,0
395810761664,-2,71,21,3,1,1,-1,-1
395810761664,13,49,6,-5,-4,-3,-3,0
395810776778,-3,-12,-13,-1,-3,0,0,-2
395810776778,1,31,0,-2,-1,-3,0,0
395810784284,-2,-16,-10,1,2,2,0,1
395810784284,-5,0,2,2,1,-1,-2,-1
395810800769,0,5,-2,-4,-1,0,-2,-2
395810800769,-3,-4,-1,-1,-3,-1,-2,-2
395810800915,3,4,16,3,-1,-2,-1,-3
395810800915,9,-35,-12,-2,-1,-1,1,1
395810815673,-4,-9,1,3,0,-2,-1,-2
395810815673,-1,2,0,-1,0,-2,0,0
395810821754,-6,-10,-2,0,-1,-1,0,0
395810821754,2,-9,-4,-3,0,2,0,-1
395810838134,0,0,2,-3,-3,-3,-4,1
395810838134,-2,17,7,2,0,-2,1,-5
395810844363,4,0,-3,-3,-1,0,2,0
395810844363,-9,-26,-29,-14,-3,-3,2,-1
395810859943,-6,14,41,25,5,1,0,1
395810859943,10,3,0,-6,-3,-2,-1,-1
395810860746,-3,-9,-5,-4,-1,-1,-2,0
395810860746,-9,-18,-9,-5,-4,-2,-2,-2
395810883811,0,-5,-88,-53,-12,-8,-12,-1
395810883811,7,12,85,63,16,13,11,1
395810884708,1,-8,-17,-1,1,1,4,0
395810884708,-3,0,12,-11,-2,-8,-4,1
395810896790,0,-6,-73,-28,-3,42,-8,-4
395810896790,6,-14,-57,-12,12,33,-41,-13
395810904278,-14,30,89,90,1,-33,37,-8
395810904278,11,-1,-17,4,-6,19,13,32
395810919854,2,7,25,-6,15,23,-18,-3
395810919854,-2,-10,-34,-40,4,79,-30,-5
395810920702,-10,-11,-8,19,-20,-28,17,-16
395810920702,6,2,2,-6,-25,-8,12,26
395810935762,10,0,4,10,-7,-29,1,-4
395810935762,-16,1,-33,-44,-1,8,6,0
395810941820,1,8,58,26,25,40,-19,-5
395810941820,-17,-11,-10,7,6,-4,-2,-22
395810956720,-1,-6,26,7,1,-12,3,10
395810956720,1,7,-10,-18,-6,-18,9,-4
395810964252,0,-6,-15,-9,-3,0,-7,4
395810964252,0,-7,-12,-4,1,-17,-5,-6
395810979915,-3,1,4,10,3,12,4,-4
395810979915,-4,-1,4,11,-11,-34,9,-2
395810980597,6,-23,-37,-32,-7,-3,-5,8
395810980597,-2,28,3,-1,8,12,-9,-4
395810995729,-5,7,15,9,0,-2,5,-8
395810995729,-7,-7,8,9,-6,-19,11,4
395811009894,11,1,-22,-31,-5,5,-12,8
395811009894,-25,-24,-8,3,8,13,-16,-19
395811016752,4,70,28,6,-9,-12,10,-3
395811016752,4,-11,1,5,-1,-14,19,1
395811024201,-10,-20,-42,-19,1,11,-34,-3
395811024201,4,-6,-1,3,-9,-14,-12,-20
395811039989,5,37,48,4,-17,-21,18,-11
395811039989,-6,7,-20,12,31,0,-28,-2
395811040620,31,4,45,-13,23,57,67,35
395811040620,-23,26,11,3,-5,-15,-61,-12
395811055741,5,-34,-7,5,9,11,-9,-17
395811055741,-3,-31,-42,-3,-18,-20,-28,11
395811061770,-11,35,-1,-11,-6,-11,47,-11
395811061770,6,-6,-7,1,3,7,13,1
395811077478,-3,-30,10,3,-6,-2,6,17
395811077478,-10,3,5,0,-10,0,97,-10
395811084371,-5,-2,-39,-8,-3,-13,-116,-9
395811084371,6,-9,11,1,-1,2,5,8
395811101379,-5,-6,-10,4,4,0,-10,-3
395811101379,3,3,13,-1,-2,0,-1,0
395811106838,-6,-3,-30,-14,-9,-3,29,0
395811106838,4,-9,-3,-20,2,5,6,1
395811115680,-2,-13,-31,-2,3,1,-16,2
395811115680,-4,2,-69,-32,-13,-5,2,-1
395811121873,1,7,86,49,14,-1,-22,-21
395811121873,-25,-9,-78,-27,-1,-11,-5,-31
395811136623,21,-3,-18,-27,44,116,6,85
395811136623,-6,14,-68,3,-35,-84,30,-39
395811144252,11,-3,49,5,-33,-48,28,22
395811144252,40,12,23,-42,-2,26,50,-5
395811159925,-65,-13,109,88,34,-41,6,-53
395811159925,16,-4,8,-54,-3,-37,-33,42
395811160599,26,-3,-56,-21,5,16,-19,51
395811160599,-17,-15,7,-2,-42,-23,-11,-16
395811175704,-4,-18,-56,-40,-26,-14,3,14
395811175704,-7,-1,51,5,14,37,-38,-25
395811181826,-4,5,-27,5,9,3,4,-57
395811181826,4,-8,5,10,20,19,3,28
395811196787,7,-28,-37,-18,-7,-8,-8,-16
395811196787,-4,5,35,29,2,8,7,0
395811204323,-13,-11,-12,-21,-5,3,-4,1
395811204323,7,33,2,17,14,13,12,9
395811221212,1,4,2,1,-13,-16,-2,-6
395811221212,9,-65,15,11,-4,5,-15,-11
395811222081,-24,-30,-33,-13,-4,10,26,24
395811222081,-13,-54,-8,10,7,-6,-37,1
395811235684,6,-22,19,4,-12,-9,71,-26
395811235684,4,54,5,-8,-11,-2,-78,21
395811241830,1,0,21,-14,-10,2,-15,-46
395811241830,8,36,-5,24,20,-3,24,30
395811256789,-2,-12,-39,-14,0,1,-17,4
395811256789,-5,-7,22,10,2,21,90,1
395811264183,-17,-26,-44,-11,-6,-19,-111,-11
395811264183,-1,87,84,22,-6,-5,114,-18
395811282745,19,34,-21,0,26,60,-77,33
395811282745,31,7,-4,7,5,-10,41,-13
395811283565,-31,-55,-91,-12,9,2,77,36
395811283565,19,28,49,3,-14,-22,62,-38
395811295694,-20,-63,-22,-6,2,16,112,55
395811295694,3,58,11,4,-2,-6,-100,12
395811301771,17,8,24,0,5,1,51,-44
395811301771,-5,8,-29,-3,-11,5,-8,-2
395811316815,3,5,29,5,-10,-26,23,-34
395811316815,-22,-79,-37,-7,1,8,9,19
395811324156,3,10,16,9,-7,-4,-15,4
395811324156,-2,-23,8,0,5,7,-35,-3
395811339869,7,9,-27,-14,-18,-31,-29,-9
395811339869,-8,-17,21,4,8,9,-9,3
395811340641,6,61,5,-7,-2,7,-3,2
395811340641,1,-38,-9,0,2,-1,-20,3
395811355674,4,0,-10,-6,-4,-10,-32,-2
395811355674,-5,29,9,2,-4,-5,13,-8
395811361662,-1,17,32,1,6,13,6,-3
395811361662,-5,-51,-47,-6,0,-1,-32,13
395811376779,-8,28,28,-17,-13,-14,-4,-15
395811376779,-1,-4,8,-6,2,5,16,-9
395811384228,2,-7,-1,-15,-5,-7,-3,10
395811384228,-10,-42,-11,27,8,7,-19,3
395811399919,7,34,-10,-7,-7,-10,-9,-11
395811399919,6,-2,-7,-2,-1,6,15,0
395811400690,0,39,33,6,2,0,-10,-1
395811400690,-4,-49,-33,-17,-5,4,48,17
395811422452,5,-10,5,8,0,-11,-47,-20
395811422452,-5,10,5,6,2,7,13,6
395811423180,11,14,-13,-4,-4,-3,7,5
395811423180,-3,12,17,-2,-3,-1,-5,-3
395811444989,-4,-14,2,6,-3,-3,12,0
395811444989,5,9,1,-2,1,1,-1,0
395811445616,-15,-27,-11,-1,-2,-1,-4,-6
395811445616,-6,11,18,5,3,0,-12,-3
395811459952,7,-16,-16,2,0,-2,6,2
395811459952,-1,33,15,-1,-3,1,-22,-9
395811460652,1,-20,-10,2,-2,-1,33,15
395811460652,-8,20,-1,-6,-1,-1,-27,-16
395811483832,4,7,8,3,-2,0,0,-13
395811483832,-10,-36,-13,-8,-5,-7,6,-1
395811484730,2,-1,10,8,0,-1,2,5
395811484730,-1,2,-12,-8,0,0,-11,6
395811496813,-2,21,5,1,-2,-2,-6,-10
395811496813,0,-23,-6,1,1,8,39,11
395811504297,-2,-15,-4,0,0,-10,-50,14
395811504297,4,9,1,-8,-6,-4,-13,-13
395811519338,-3,-11,3,7,5,2,8,-1
395811519338,-9,3,-6,5,-1,1,-2,-2
395811526643,5,-4,-7,-9,-5,1,5,-3
395811526643,4,6,10,3,1,-1,-6,4
395811535663,-1,5,1,-3,-3,-4,0,3
395811535663,-5,10,2,2,2,0,0,-3
395811541831,-2,-19,-17,1,1,2,1,-9
395811541831,1,22,-4,-10,-3,-2,-7,-2
395811556651,-4,0,2,5,0,-1,2,-3
395811556651,6,4,15,-1,-1,2,33,0
395811564269,0,-10,-10,-4,-2,-4,-41,-12
395811564269,-6,-38,-17,1,0,1,5,3
395811579261,0,14,11,-3,-3,-2,-2,4
395811579261,10,-16,-2,-1,1,-1,-8,-4
395811586778,-11,1,4,4,2,2,14,-4
395811586778,7,-1,-5,-3,0,-3,-2,4
395811595668,2,9,-4,-1,-1,-2,1,-7
395811595668,-13,-32,2,-3,-2,-2,-10,16
395811601658,9,11,3,-3,-1,2,13,-4
395811601658,5,-13,1,1,0,0,-7,1
395811616815,1,35,3,1,0,0,10,8
395811616815,-5,11,3,3,1,-1,-14,-27
395811624312,-4,-5,-2,-3,-3,-3,-1,1
395811624312,-4,2,-2,-3,-1,-1,-1,1
395811639118,-4,-17,-7,-3,-1,-4,1,0
395811639118,-1,7,1,-3,0,0,-12,0
395811646819,2,-3,-7,0,-3,-2,12,-3
395811646819,1,22,-12,4,0,4,1,-6
395811662448,0,-26,22,0,-1,0,1,4
395811662448,3,33,19,0,-2,-3,-8,-1
395811663121,0,-18,-2,-3,0,2,2,-3
395811663121,-5,-4,-9,-1,0,-1,-2,3
395811676819,-3,-5,-12,0,-1,-1,-2,0
395811676819,0,1,-5,-2,0,-1,-3,1
395811684250,2,5,7,5,0,-1,1,-2
395811684250,-1,0,5,-3,-2,-1,-1,-2
395811700642,-5,-8,-10,-5,-4,-2,-3,-2
395811700642,2,1,2,2,-1,-1,1,-2
395811707535,-1,9,-5,-3,-1,1,3,0
395811707535,-4,9,-2,4,0,-2,-13,-8
395811722943,1,-19,-2,-2,-3,-2,18,12
395811722943,1,4,-11,-4,-1,1,-3,2
395811724539,-3,2,5,-1,-2,-1,-2,0
395811724539,3,-17,4,-2,0,-2,-1,-1
395811736706,-3,21,-5,-3,-1,-1,-5,-7
395811736706,-3,4,-1,1,0,-1,-2,-2
395811744252,0,-7,1,1,-2,-2,-1,-3
395811744252,-1,-1,1,-5,-3,-3,-1,0
395811759251,-5,1,-4,-1,-3,-3,-2,-7
395811759251,-3,-10,-2,-1,-4,0,0,-2
395811766796,1,12,2,-1,-1,-1,-3,-4
395811766796,-2,2,9,1,-1,-2,1,3
395811782450,2,-5,-21,-1,-1,-1,-4,-4
395811782450,-3,-12,3,6,1,0,-3,-4
395811783191,-2,2,4,-7,-4,-5,-4,-5
395811783191,-4,21,-5,-3,-7,-3,4,-1
395811796754,-5,-35,-4,-3,-4,-2,-2,-2
395811796754,-1,-1,-6,-1,1,-1,-2,-2
395811804138,-3,3,-4,-1,-2,-1,-1,-1
395811804138,0,-6,3,0,-1,-1,-2,-1
395811819104,-1,9,-6,-6,-3,-2,-5,-5
395811819104,0,5,-1,2,-3,-3,-2,-2
395811826738,-6,-1,3,2,1,1,2,0
395811826738,0,-7,-6,3,2,2,-1,0
395811842281,1,5,6,2,-1,0,-2,-1
395811842281,-2,1,0,-4,-2,-2,-1,1
395811843056,-1,0,2,-5,-4,-3,-2,0
395811843056,-2,-13,-11,-6,-2,-1,0,-2
395811858189,-1,1,-3,-2,-1,-1,-2,0
395811858189,-2,0,-5,0,-2,-1,0,0
395811864238,2,-1,-10,-5,-2,0,-1,-1
395811864238,-2,0,0,0,-1,0,-1,-2
395811879127,-1,2,1,3,-1,-1,-4,-2
395811879127,13,-1,-1,-4,-3,-3,-1,0
395811886704,-11,2,1,4,1,-2,-1,1
395811886704,5,-5,2,-1,-2,-1,-1,-1
395811902545,-4,2,3,-3,1,-1,-1,-1
395811902545,4,6,-2,-2,-2,0,-1,0
395811903219,3,-2,0,0,-2,-2,-2,-2
395811903219,-4,-1,2,1,2,-1,-1,0
395811916764,0,3,0,-1,-2,-1,-2,-1
395811916764,-5,-6,-2,0,1,-2,0,-2
395811924318,2,3,-3,-1,-1,-1,0,0
395811924318,-5,-6,-9,-7,-2,-2,-1,-1
395811939285,6,25,10,8,2,2,2,0
395811939285,-6,-22,0,-2,-1,-1,1,0
395811946757,-3,-26,-12,-2,-1,2,-2,-2
395811946757,4,0,8,-4,-3,-2,-3,-1
395811962264,-1,2,-2,-3,-2,-1,2,-7
395811962264,-4,2,-5,-3,-3,1,-6,14
395811963045,0,3,2,1,1,0,8,-7
395811963045,-4,-5,-3,0,0,-2,-2,-1
395811976702,-3,-6,-5,-3,-1,-4,-1,-4
395811976702,-1,-7,0,1,-2,0,-3,0
395811984361,-1,40,0,0,0,2,-2,2
395811984361,0,-31,-3,1,0,-1,1,1
395811999114,-5,-5,3,-2,-4,-5,-4,-1
395811999114,1,11,-3,-2,1,1,4,-4
395812006634,-1,-8,-2,-2,-1,-2,-3,1
395812006634,-3,8,-3,2,1,0,2,-5
395812022400,1,-5,-4,-3,-1,-1,-3,1
395812022400,-2,-2,3,0,-1,-1,0,-4
395812023149,0,-5,-2,0,-3,0,0,-2
395812023149,-1,19,-7,-5,-3,-1,-2,1
395812036639,1,-7,-3,2,-1,-2,-3,-1
395812036639,0,9,15,2,0,1,-1,-3
395812044237,1,-4,0,-4,-2,-2,3,1
395812044237,-1,-3,-5,-2,-2,-2,1,-1
395812059270,1,-21,-11,0,-1,-1,-1,1
395812059270,1,52,17,0,0,0,1,-3
395812066732,0,-1,-1,0,-1,-1,-2,0
395812066732,-2,-18,-7,-3,-3,1,-2,0
395812082453,-1,-1,-3,-3,0,2,0,-1
395812082453,-2,-8,-7,1,-1,-4,-1,-2
395812083085,-3,-10,-4,-2,-2,-3,2,0
395812083085,4,28,17,3,1,-1,-7,-20
395812098242,-1,2,4,-1,-1,2,1,5
395812098242,-1,-13,-6,0,0,-1,0,-3
395812104204,-3,3,-4,-4,-3,-2,-4,-4
395812104204,0,-7,-2,3,-1,0,2,3
395812119251,-1,6,3,2,1,0,-2,-1
395812119251,-2,-5,-9,-7,-4,0,-1,-4
395812126768,1,-8,-4,-2,0,0,-1,3
395812126768,-1,-3,-1,1,2,-1,-1,5
395812142354,0,15,8,-4,-2,0,3,-2
395812142354,1,-13,-8,-2,-2,-2,1,0
395812143080,2,-7,14,3,1,0,0,0
395812143080,-2,-3,0,-1,1,1,-2,1
395812156727,-3,-3,-13,-7,-1,-2,-1,-3
395812156727,-3,-6,-2,1,-1,-1,-1,-1
395812164253,4,5,8,5,1,-1,0,-4
395812164253,-2,-8,-27,-19,-5,-3,0,-1
395812179254,1,-20,15,34,8,2,3,1
395812179254,2,46,15,-6,-2,-2,-4,-3
395812186711,-5,-32,-6,-4,0,0,-3,-2
395812186711,-3,-20,-10,-1,-1,-4,1,2
395812203745,0,-8,-9,-12,-4,-2,-1,-2
395812203745,1,-12,-8,1,0,1,0,0
395812204595,0,6,0,5,-1,1,-1,-3
395812204595,-2,6,7,1,-2,-2,-1,-1
395812216640,-2,3,-3,-6,-2,1,-2,-1
395812216640,-4,-12,-2,2,-3,0,0,1
395812224109,0,11,-4,-2,-2,1,-1,2
395812224109,-3,5,6,2,-1,-1,-1,0
395812239082,0,16,7,-5,-4,-3,-1,0
395812239082,-3,-14,-11,0,-1,-2,0,-2
395812246584,0,2,5,0,-2,-2,0,-1
395812246584,2,7,3,4,1,-1,1,-4
395812262274,-2,-7,-1,-2,0,0,0,6
395812262274,0,-2,-6,-5,-2,-2,-5,-9
395812263068,-2,5,-5,-5,-1,-2,0,2
395812263068,3,3,8,11,2,0,0,-5
395812276644,-2,-2,-5,-6,-1,-3,-1,2
395812276644,-4,-6,1,0,0,1,0,3
395812284320,-1,-30,-2,0,-2,-2,-2,-3
395812284320,1,63,7,-5,0,1,1,3
395812299360,-5,-9,-4,0,0,-1,-1,-5
395812299360,1,-7,-2,-3,-1,-1,1,2
395812306770,-1,10,0,3,-1,-3,-1,-3
395812306770,0,-22,-3,-2,-1,1,0,2
395812322390,-2,1,-2,-1,-1,-1,-2,-3
395812322390,1,9,0,-2,-4,-2,0,-4
395812323146,0,-1,0,3,0,2,-2,1
395812323146,-1,-20,-5,1,1,1,4,0
395812336756,2,25,5,-2,-3,0,-2,-4
395812336756,-2,-19,-3,-1,0,-2,-3,0
395812344285,1,-1,-3,-2,-1,1,-3,-1
395812344285,-2,-4,0,-1,-4,-3,-3,0
395812359092,-2,-3,-2,-2,-2,-2,-1,-1
395812359092,-1,-3,-1,2,0,0,3,1
395812366776,-1,6,-2,-2,-1,-1,-1,-2
395812366776,0,-1,-1,-1,-4,-2,-2,-2
395812382357,-2,-9,-1,-2,1,0,-1,0
395812382357,1,4,-4,-8,-3,-2,-4,0
395812383136,0,10,14,16,2,0,-1,-1
395812383136,1,-2,-5,-4,-1,0,-1,0
395812396636,-2,2,-2,-3,-2,-2,-2,-1
395812396636,1,-6,2,-3,-2,-3,1,1
395812404247,-3,-5,-10,-7,0,-1,-1,-2
395812404247,-2,0,-5,-3,-1,-2,-1,-3
395812419178,0,5,14,11,3,4,1,-1
395812419178,-3,-2,-3,-1,1,0,0,-2
395812426675,1,3,-3,-8,-4,-3,1,0
395812426675,-2,-2,-5,-1,-1,-1,-1,-1
395812442278,-1,-3,-9,-7,-3,-3,-3,-1
395812442278,-2,4,4,1,2,1,0,1
395812443099,2,-17,-3,-1,-2,-1,3,2
395812443099,-3,2,4,0,0,-1,-8,3
395812456736,1,0,-3,-4,-4,-1,-1,-1
395812456736,1,0,1,2,2,-2,-1,0
395812464170,-3,12,-4,-5,-1,-1,-1,1
395812464170,-2,-8,3,0,1,1,1,-2
395812479220,2,-1,-2,-2,-1,-2,0,-1
395812479220,-2,0,-8,0,-1,-1,0,0
395812486725,4,4,9,-3,-3,0,-3,-4
395812486725,1,-6,-2,-1,-2,-2,-1,-1
395812501620,-3,-2,4,3,0,0,-1,-1
395812501620,0,-3,-1,-2,0,1,0,-2
395812509923,-3,7,-1,3,0,-3,-1,-2
395812509923,-2,-6,0,1,0,-1,0,-2
395812516619,1,-2,-5,-3,-1,-2,1,-1
395812516619,-1,-3,-1,1,-2,-1,-1,-2
395812524095,-4,-3,-4,-4,0,1,-1,-2
395812524095,-2,-9,-4,0,-1,-1,-1,1
395812539074,-2,0,3,-2,-2,-2,-2,-1
395812539074,3,1,-3,-1,-2,-1,-1,-2
395812546737,-1,-3,-6,1,0,-2,-2,-2
395812546737,-2,-2,12,-1,0,-1,0,-2
395812561674,-2,-2,3,3,2,2,1,0
395812561674,-2,5,1,-1,-2,0,-3,-1
395812569845,-1,2,0,-3,-1,0,-2,0
395812569845,0,2,-7,-3,0,-1,0,-1
395812576818,-1,-5,-6,-4,-3,-3,-2,-2
395812576818,-2,-1,3,0,-2,-2,-1,0
395812584237,-2,-4,-3,-2,-1,1,0,-1
395812584237,0,3,-4,1,-1,-2,-2,0
395812599244,-1,-3,-1,-2,0,-2,0,-1
395812599244,6,11,10,0,0,-3,3,-9
395812606723,-8,-1,-5,-5,-2,-1,-1,-5
395812606723,1,-1,-1,0,-3,0,1,-1
395812621752,-2,0,-4,8,2,2,-1,-1
395812621752,-2,-5,-9,-5,-2,0,-3,-3
395812629879,1,-1,2,-2,0,-3,0,0
395812629879,0,4,0,-5,-1,-1,0,-1
395812636768,-2,-3,-5,-3,-3,-2,-3,-3
395812636768,-3,-1,1,0,0,0,1,1
395812644136,-2,-1,-1,-1,-2,-1,-1,-1
395812644136,-1,-3,0,-1,2,0,-3,1
395812659197,0,-4,-5,-2,0,-1,-1,0
395812659197,-2,4,1,-2,-1,-2,-3,0
395812674874,-1,-7,3,0,0,0,-2,1
395812674874,0,22,3,7,1,3,2,-3
395812681700,0,1,3,-3,-2,-1,1,-1
395812681700,-4,-8,-5,4,-1,-1,-2,1
395812689908,0,-3,-3,-1,1,-1,-1,-1
395812689908,1,-4,-2,-3,-1,-1,0,0
395812705253,0,1,-4,-2,-2,-2,-1,-2
395812705253,-2,-3,-3,-1,-3,0,-1,1
395812712411,0,0,1,0,-2,-3,-2,0
395812712411,0,-3,0,0,-1,0,0,1
395812719120,-1,2,-3,-6,-2,0,0,1
395812719120,-5,-6,-3,-1,-1,0,-2,-2
395812726804,1,1,-1,1,-1,-2,0,0
395812726804,-6,-5,5,4,3,1,0,-1
395812741654,1,10,-1,-2,-1,-2,-5,-3
395812741654,-3,2,-6,-3,-1,-1,0,-2
395812750008,2,3,3,-3,-5,-3,-1,-1
395812750008,-3,-4,-9,-7,-4,-2,-1,0
395812764710,-1,-3,-4,1,2,-1,-1,-1
395812764710,-1,-4,8,-1,2,0,-3,0
395812765522,-1,0,-12,-5,-1,0,-1,-2
395812765522,5,12,10,7,0,-1,0,-1
395812780570,-2,-13,-1,0,0,0,0,0
395812780570,-1,-3,-5,-1,-4,-3,-1,0
395812786755,3,15,-1,-1,2,1,2,1
395812786755,-9,-38,-4,-4,-5,-2,-3,-3
395812801556,-4,-3,-3,1,-2,-1,-1,1
395812801556,0,1,-8,-1,-1,-1,-2,0
395812809924,0,6,16,3,0,-1,-1,-1
395812809924,2,0,-5,-3,-3,-1,-2,0
395812824798,0,1,2,-1,-1,1,0,2
395812824798,-1,-10,-4,-1,-2,-2,0,-1
395812825703,-2,-2,-3,1,-1,-1,-2,-1
395812825703,-1,3,0,-2,0,1,0,-1
395812839207,-2,-7,-2,-5,-4,-1,0,-1
395812839207,-1,8,-3,-1,-1,-1,-1,-1
395812846690,-5,-8,-8,-1,-3,-2,0,-2
395812846690,4,7,11,3,-1,0,-1,1
395812870606,1,0,-8,-5,-5,-4,0,-1
395812870606,-2,0,2,2,1,1,0,-2
395812871323,-4,-17,-9,-6,-1,0,-1,0
395812871323,-4,14,-1,-1,0,0,0,-3
395812885308,5,3,11,2,1,-1,-2,-1
395812885308,-3,-2,-1,-3,-1,-2,-2,-1
395812892418,-2,-19,-8,-2,-3,-2,-2,-2
395812892418,0,0,-7,-3,-1,-2,-1,-1
395812899127,-2,7,-3,1,2,1,1,0
395812899127,-1,-3,2,-1,-2,0,0,1
395812906804,-2,6,5,0,0,-1,-3,-1
395812906804,0,-1,-7,-3,-2,-1,1,0
395812921591,-3,4,6,3,-1,0,-1,-3
395812921591,0,-2,5,-1,-1,-1,-2,-2
395812929785,-2,-2,-6,-2,-2,-2,-2,-1
395812929785,2,9,2,-4,-1,-2,-2,-2
395812944727,0,-8,-2,1,1,0,0,-3
395812944727,0,0,1,1,1,-1,-1,-2
395812945495,0,0,0,1,1,-1,1,0
395812945495,0,-4,-2,-3,-1,-2,0,0
395812959272,-1,0,-2,-3,-2,-3,0,1
395812959272,-1,0,-1,0,-1,-2,-2,0
395812966721,1,0,2,1,0,-1,-2,-1
395812966721,-2,7,-6,-2,-2,-2,-1,1
395812981604,3,-10,8,3,-2,-2,-2,1
395812981604,0,1,-9,-7,-3,-1,-1,-1
395812989910,-1,-2,4,0,-1,0,-1,0
395812989910,-3,-6,-1,3,0,-2,0,0
395813004812,-3,-11,-13,-5,-3,-1,-3,-1
395813004812,0,13,12,5,0,0,0,-1
395813005717,-7,-7,-7,-3,-1,-1,0,-2
395813005717,1,-13,3,-1,-2,-2,-2,-1
395813020710,-2,-6,-6,1,0,0,-1,1
395813020710,1,7,2,-2,-2,0,-2,0
395813026563,-2,7,1,1,0,-1,-1,0
395813026563,0,-2,-1,0,-2,-2,-1,-1
395813050567,-2,-3,-4,-4,-3,-2,0,0
395813050567,-1,-5,-4,-2,0,0,0,0
395813051286,-5,-7,3,2,0,2,0,-1
395813051286,3,5,0,1,-1,0,-1,-1
395813064786,-2,-3,-4,-2,-1,-2,1,-2
395813064786,-1,3,-2,-1,-1,-3,-1,1
395813065678,2,17,4,0,-1,-1,-3,-1
395813065678,-1,-16,2,0,-1,0,-1,0
395813079145,-2,4,-4,-6,-1,0,0,0
395813079145,0,-3,-1,3,-2,-1,-1,-1
395813086761,2,-4,-3,-1,0,0,0,0
395813086761,-1,0,2,-3,0,0,1,-1
395813101695,2,5,2,0,-2,-1,-2,0
395813101695,-2,-8,-3,-1,-1,-2,-1,-1
395813109944,0,0,-7,-7,-5,-2,-2,0
395813109944,-4,-8,-8,2,1,-1,-3,-3
395813124927,0,11,15,-2,-4,-2,-2,-1
395813124927,-1,-9,-3,-2,-1,0,-1,-2
395813125599,2,-11,-3,1,0,0,-1,-2
395813125599,0,12,5,-3,-1,0,-1,1
395813147362,-4,-2,-8,1,2,1,-1,-3
395813147362,-3,-10,1,-4,-4,-1,-3,-2
395813148183,4,26,8,-3,-2,-3,1,-1
395813148183,-4,-4,-6,6,6,3,0,-1
395813161599,0,0,-2,0,-2,-2,-2,0
395813161599,-1,-2,-1,-1,-1,-1,-2,0
395813169885,-3,-24,-9,-5,-1,0,-1,-1
395813169885,3,15,2,-2,-2,-1,-2,-1
395813184903,-7,-6,-3,-2,0,0,-1,-2
395813184903,2,-4,0,-1,1,0,0,0
395813185605,0,7,3,2,0,-1,-1,-1
395813185605,-2,-6,-5,-4,-3,-2,-1,-1
395813199106,1,-3,-1,3,2,1,0,0
395813199106,-2,3,-2,-2,-1,-2,0,-1
395813206621,-2,-2,-1,1,1,0,-1,0
395813206621,-1,-5,0,-1,-2,0,0,0
395813221697,-4,-9,-9,-4,-4,-3,-2,-2
395813221697,4,17,14,6,-1,-1,0,-2
395813229839,0,4,-5,-3,0,0,0,0
395813229839,-5,-6,-3,-1,-2,-1,-2,-2
395813244713,-1,-5,-4,-2,0,-1,-1,-2
395813244713,-4,-3,-13,-4,0,-2,-2,1
395813245630,0,1,9,1,0,-1,-3,-2
395813245630,1,8,14,0,-3,-4,1,1
395813260584,0,-3,-5,-1,1,1,-1,-1
395813260584,-2,-1,-3,-3,0,0,-2,-1
395813266828,-4,-1,-7,0,-2,-1,-2,-2
395813266828,-1,5,-3,-2,-1,0,0,0
395813281732,1,3,9,3,0,-2,-2,-2
395813281732,-1,-1,-3,-2,-2,-1,0,0
395813289927,-5,-10,-2,-2,-3,-2,0,0
395813289927,0,-2,-4,0,1,-2,-1,-3
395813304866,2,19,6,3,1,1,0,2
395813304866,-2,-7,-2,-4,-2,-2,-1,-2
395813305677,2,-2,-2,0,0,-1,-1,0
395813305677,-1,-3,-4,1,0,0,-1,-2
395813319300,-1,2,-2,-6,-3,-1,1,0
395813319300,-1,-7,-1,2,0,-2,-1,-1
395813326720,-1,-5,0,-1,0,-1,-1,0
395813326720,2,-8,-1,-1,-1,-2,-2,-1
395813350419,-1,-2,-3,-1,-2,-3,0,-2
395813350419,-2,1,-1,-1,-2,-2,-1,0
395813351328,1,-2,-10,2,0,0,0,0
395813351328,-1,-9,14,-2,-1,1,-1,-1
395813364896,0,1,0,0,-3,-2,0,-2
395813364896,-1,-5,-1,-1,-1,-1,1,-1
395813365582,-5,-7,-6,-2,-3,-2,-1,-2
395813365582,0,19,0,2,0,1,0,0
395813379236,1,5,2,0,-2,0,-1,0
395813379236,0,-2,-4,-1,0,1,0,0
395813386793,0,-4,1,-2,-3,-3,-1,-1
395813386793,-4,-10,-8,-2,0,0,-1,-2
395813401546,-2,-7,-1,-1,-1,-1,0,0
395813401546,-1,4,-6,-3,-1,-2,-1,-2
395813409885,-1,8,5,-1,0,-2,-1,-2
395813409885,-2,-4,-6,-6,-3,-2,-1,0
395813424508,1,4,-1,5,0,2,-1,-1
395813424508,1,-4,3,1,0,0,0,-1
395813432256,-5,-8,3,-1,0,-2,-2,-1
395813432256,0,-3,-3,-3,-1,-1,-1,-1
395813439084,-1,-1,-4,-1,-1,0,0,-1
395813439084,0,3,-2,2,-1,0,-1,-2
395813454857,1,-7,1,-1,-2,0,0,0
395813454857,-2,22,5,11,1,-2,0,1
395813461677,-2,-4,3,1,2,0,-1,-2
395813461677,0,-7,-4,-4,-4,-1,0,-1
395813469765,0,3,-3,-1,-2,-1,-1,-1
395813469765,1,-9,1,-4,-1,-1,-1,-1
395813484101,-4,-13,-10,-4,-2,-2,-1,0
395813484101,2,11,2,-2,-1,-1,-2,-2
395813492407,-3,-9,-6,7,2,1,0,0
395813492407,1,25,9,-2,-2,-3,0,-1
395813499264,0,-4,1,-4,-2,-3,-1,-1
395813499264,-2,-12,-1,1,-1,0,0,-1
395813506609,-1,7,0,2,2,3,1,0
395813506609,-3,-13,-11,-4,-2,-1,-1,-2
395813521679,0,1,2,0,-2,-2,-1,-1
395813521679,-3,-2,2,1,-1,-1,-2,0
395813529772,-3,4,-2,-4,-3,-1,0,0
395813529772,-1,-7,-2,1,-2,1,-2,-1
395813544176,-2,-1,-4,-2,-2,0,-1,-1
395813544176,0,-7,-2,2,1,0,-1,-1
395813552272,0,7,4,-5,-2,-1,-2,-2
395813552272,-3,-17,-4,1,1,0,-1,0
395813559197,2,3,-6,-4,-1,-1,-2,-1
395813559197,0,6,15,-1,1,-1,0,0
395813566604,-2,-4,-1,-2,-4,-3,-1,-2
395813566604,-3,0,-3,0,2,2,1,-1
395813581534,1,1,-1,-1,-1,1,1,0
395813581534,-3,-11,-9,-7,-1,1,-2,0
395813597424,-2,-4,4,8,1,-1,-2,-1
395813597424,0,-1,-5,-5,-1,-1,1,0
395813604240,-1,-23,0,2,-1,0,0,2
395813604240,1,5,0,-6,-4,-2,-1,0
395813612440,0,3,-1,-6,-2,-2,1,-1
395813612440,1,8,0,2,-2,-2,-1,-3
395813627415,-2,0,1,-2,-2,-1,-2,-1
395813627415,-2,-7,-4,3,0,-1,0,-1
395813628011,-3,-15,-11,0,1,1,-1,0
395813628011,4,49,23,-1,-1,-3,-4,-1
395813643061,-2,-6,-2,-1,2,0,0,-1
395813643061,1,1,-2,-2,-4,-3,-2,0
395813650337,-1,-3,-6,-3,-2,-1,-1,0
395813650337,0,-16,-11,-4,0,1,0,-2
395813664243,0,11,4,0,-1,0,-1,-2
395813664243,-2,-5,0,1,-2,0,-3,-1
395813672417,0,5,1,-2,0,0,1,-1
395813672417,-4,-17,-4,0,-3,-1,-1,0
395813687347,-1,5,6,1,-3,-3,0,-1
395813687347,-1,-11,-10,-5,1,-1,0,-1
395813688110,2,12,2,-5,-3,-2,-2,-2
395813688110,-1,-5,6,12,1,-1,-1,0
395813701599,-2,-4,-12,-7,-1,2,1,0
395813701599,-1,6,5,1,1,0,-1,0
395813709856,0,-5,-3,-8,-3,-3,-2,-2
395813709856,-2,-13,-8,-3,0,0,0,0
395813724209,-2,1,-1,-2,-2,-2,-3,-2
395813724209,-1,5,-2,2,-1,-1,0,-1
395813732247,2,4,4,1,0,0,-1,-1
395813732247,0,-9,-4,-2,0,-1,-1,-1
395813756169,-3,1,-2,1,-1,1,0,-1
395813756169,-2,4,2,0,-1,1,0,-1
395813756979,-2,2,2,2,0,-1,-1,0
395813756979,-3,-5,-6,-5,-2,-1,0,-1
395813763063,0,2,2,0,0,1,0,-1
395813763063,-1,-10,-6,-1,-3,-1,-2,-2
395813769896,0,6,5,2,0,0,0,0
395813769896,-1,-8,-2,2,2,1,-1,-2
395813793140,1,0,1,1,-1,-1,-2,-1
395813793140,-3,-8,-6,-6,-3,-2,-1,0
395813793711,-4,-4,-9,7,1,-1,0,-1
395813793711,3,11,15,-5,-3,-1,-2,-1
395813807308,-1,-7,3,2,1,-1,-1,-1
395813807308,-1,4,-1,-2,-4,-1,0,-2
395813808017,-1,-4,-17,-17,-5,-2,-3,-1
395813808017,0,4,5,9,3,0,2,0
395813821596,-3,-4,-2,-2,-1,-3,-1,-1
395813821596,2,-7,3,-1,0,-2,0,-1
395813829945,-1,2,-3,-4,-3,-2,0,-1
395813829945,-4,-20,-17,-6,-2,-1,-1,-2
395813844184,6,20,2,1,0,0,0,2
395813844184,-4,5,-2,1,1,0,-1,-2
395813852362,2,10,8,2,0,-1,-2,-1
395813852362,0,-12,-6,-6,-2,0,-1,0
395813867301,-3,-1,4,7,3,1,1,-2
395813867301,-1,-1,0,1,0,-2,-1,-1
395813867987,0,-2,0,1,-2,-1,-1,-1
395813867987,0,5,-2,-2,-4,-3,-2,-2
395813881716,-1,-5,-2,-4,-4,-3,-1,0
395813881716,1,2,-1,2,2,1,1,0
395813889860,-2,-1,1,1,-3,0,0,1
395813889860,-2,2,0,-3,-2,-2,-2,-1
395813904054,0,-3,-7,-5,-2,-3,-2,-1
395813904054,0,0,3,0,1,-2,-1,-4
395813912271,0,-2,-2,3,3,0,-1,-1
395813912271,-3,-4,-1,-4,-2,-1,-2,-2
395813927269,-4,3,-10,-1,-1,-2,0,-2
395813927269,5,20,16,-1,-2,0,0,3
395813928179,-2,-8,0,0,1,0,2,0
395813928179,-1,0,-3,4,4,4,2,1
395813941625,-1,-5,-2,-2,2,3,1,0
395813941625,-1,-1,-1,1,2,0,-2,1
395813949843,1,0,1,-1,-1,0,-2,-1
395813949843,2,-3,-5,-5,-1,-2,0,1
395813964246,3,9,4,1,0,-2,1,-1
395813964246,-4,-3,-5,4,0,1,1,-1
395813972389,-3,-1,4,0,-3,1,0,-1
395813972389,4,-4,-3,-1,-1,-1,-1,-1
395813987320,0,9,3,-5,-1,-2,-2,0
395813987320,-2,-3,-3,-4,-1,-1,0,0
395813988052,-1,-4,1,1,1,-1,0,-3
395813988052,-3,0,-3,1,-2,-1,-4,-1
395814001605,1,-4,1,-1,-1,-3,-1,-1
395814001605,1,-1,-2,-1,-3,-2,-3,-3
395814009770,-3,-3,-3,-2,-2,-2,-2,-2
395814009770,-1,0,0,-2,-4,-2,-2,-2
395814024063,-2,-7,-4,-1,-3,0,-1,-1
395814024063,-2,-1,0,1,2,-1,-3,-1
395814032226,2,-1,5,2,-1,-2,-2,-3
395814032226,1,5,-5,-1,-1,-2,-1,-1
395814047336,-3,-6,2,2,-1,-3,-1,-3
395814047336,0,-4,-4,-6,-3,-3,-2,0
395814048048,-2,-2,2,1,-1,-2,-1,-1
395814048048,0,3,-5,-1,2,-2,-1,-2
395814063042,-1,-3,0,0,-2,0,-1,-1
395814063042,-1,-13,-2,0,-3,-1,-1,-1
395814069786,-2,8,1,-3,-3,-1,-1,-1
395814069786,0,-5,-2,-1,-1,-1,-1,-1
395814084216,0,-1,-2,-2,-1,0,-2,0
395814084216,-1,3,3,1,2,0,0,-2
395814092290,-2,-1,-4,0,0,0,0,-1
395814092290,0,-4,0,-1,-2,-2,-1,-2
395814107337,0,4,3,0,0,-1,-2,-2
395814107337,1,7,-1,-1,1,2,0,-1
395814108035,-3,-6,-8,-5,-3,-1,-3,0
395814108035,0,1,6,-3,-2,-1,-2,-1
395814130552,1,-3,-4,-3,-1,-2,-1,0
395814130552,-1,-2,-5,-3,-3,-3,-1,-1
395814131321,-1,-5,-2,3,1,0,0,-1
395814131321,-3,-1,-7,-6,-2,-1,0,1
395814144264,0,13,3,1,1,1,1,1
395814144264,-3,-10,-3,0,-2,-2,-2,-2
395814153078,-1,1,-3,-2,-3,-2,-1,0
395814153078,-2,-3,1,1,-2,-2,-2,-3
395814166724,-3,-5,2,2,2,2,-1,-1
395814166724,0,2,-2,1,-1,1,-2,1
395814175562,1,1,-2,-4,-1,-2,0,0
395814175562,-2,-3,4,3,-1,-1,-1,-1
395814181702,-2,-9,-7,-6,0,1,0,0
395814181702,-2,-1,2,5,0,0,-1,-3
395814190632,2,12,6,1,0,0,-1,0
395814190632,0,1,-2,0,1,0,-2,0
395814204046,-2,-11,0,-3,-1,-2,-1,-1
395814204046,-2,-5,-5,1,0,-2,0,-1
395814213099,0,3,4,2,-2,-1,-1,-1
395814213099,-2,-8,-2,0,2,1,0,-2
395814226713,-3,-1,-2,-7,-5,-2,0,-1
395814226713,-2,3,0,0,-2,-1,1,0
395814235535,2,-8,0,-1,-1,1,0,1
395814235535,-1,-1,0,-2,-1,-1,-2,-3
395814241585,-2,-5,0,0,-2,-2,0,-1
395814241585,-6,-5,-4,-3,0,0,-1,-1
395814250675,-3,0,-3,-1,-2,-1,-1,0
395814250675,0,4,-1,-3,-4,-1,-1,1
395814264144,-2,2,4,6,2,0,-1,-3
395814264144,1,-7,-4,-2,-1,0,-1,0
395814273020,-1,-1,-2,-5,1,1,0,0
395814273020,-1,-4,-4,-1,0,-2,-1,0
395814286587,0,8,2,2,-1,-4,-2,1
395814286587,0,-3,4,0,-4,-3,0,0
395814295576,0,-9,-6,-3,1,0,1,-2
395814295576,-3,3,2,-2,-1,0,0,-1
395814301788,3,5,-3,-1,-2,-1,-1,0
395814301788,3,-12,-3,-2,-1,-1,-2,-2
395814310539,1,2,-3,0,0,0,-1,0
395814310539,-4,-2,-6,0,-2,-1,-1,-2
395814324248,-2,-2,1,3,-1,1,-1,-1
395814324248,-1,6,0,-6,-2,-1,-2,0
395814333102,-2,-8,-1,0,0,-3,-2,-1
395814333102,1,1,-4,-2,1,1,0,0
395814346614,-1,-3,-3,-6,-3,-1,0,-1
395814346614,0,6,5,7,0,1,1,-2
395814355585,-1,-2,-2,0,-1,-1,-1,-1
395814355585,0,0,1,-1,-1,-1,0,-1
395814361598,-1,-7,0,0,-1,-1,-2,-2
395814361598,-2,8,-4,-4,-1,-1,-1,1
395814370584,1,0,1,4,-1,1,-1,-2
395814370584,0,6,5,0,-2,-2,-2,-1
395814384081,-2,-3,-5,-5,-1,0,0,-2
395814384081,-1,-2,2,3,3,1,0,0
395814393084,-1,1,2,-2,-1,-1,0,-1
395814393084,-4,-7,-1,0,0,-2,-3,-2
395814406678,2,-1,-11,-4,-1,-1,-1,-1
395814406678,0,4,-4,-4,-3,-2,-1,-3
395814415568,-3,-5,-1,-4,0,0,-3,-1
395814415568,0,-2,2,1,1,0,1,-1
395814421712,1,-2,3,4,1,0,-1,-1
395814421712,3,-1,-1,-4,-1,0,-1,-1
395814436736,-3,3,1,0,-3,-1,0,-1
395814436736,-1,0,-5,-5,-2,1,-1,-1
395814444190,-3,-2,-8,-1,0,0,-2,-1
395814444190,0,-11,12,4,1,2,-1,0
395814453015,3,16,3,-1,-2,-2,-2,0
395814453015,-1,-9,-1,-4,-3,-2,-1,0
395814466681,-2,-4,1,3,0,-1,0,-3
395814466681,0,-3,-5,-1,0,-1,1,0
395814475544,-3,-5,-7,-6,0,-1,0,-2
395814475544,-1,1,1,2,-1,-2,-1,0
395814481688,-1,-1,-2,-3,-2,-2,-1,1
395814481688,-1,1,-4,-6,-3,-4,-2,-3
395814490496,0,-7,-3,-1,1,-1,0,-1
395814490496,1,1,1,2,0,0,-1,0
395814504179,-1,-8,2,-3,-1,1,0,-1
395814504179,-2,14,-2,4,1,-1,0,1
395814513159,-3,-7,2,1,1,0,-1,0
395814513159,1,-9,-3,0,-2,-2,-1,-1
395814526699,-1,2,2,-6,-3,-2,-1,-1
395814526699,-2,-2,-2,-2,-2,-2,-1,1
395814535603,-1,-2,-4,-3,-2,-3,-1,-1
395814535603,-2,3,-1,-1,0,-1,-1,-1
395814550498,-1,-3,5,6,-1,0,1,0
395814550498,-4,2,-8,-7,-3,-2,-1,-1
395814552066,1,-10,1,5,0,1,0,0
395814552066,-1,3,-1,-3,-2,-2,-1,-3
395814564046,0,10,-3,-4,-4,-1,-3,-1
395814564046,1,-6,3,1,-1,-2,-1,0
395814573026,0,5,0,-2,-1,-1,-1,0
395814573026,1,-3,-1,0,-1,-3,2,0
395814586685,-3,-4,-3,2,0,-1,0,-2
395814586685,-1,-4,-4,-4,-3,-2,-2,-2
395814595549,-1,-2,1,-1,0,1,0,-1
395814595549,-1,0,1,0,-1,1,1,-1
395814610520,-1,5,-5,1,0,1,-1,-1
395814610520,0,-14,2,3,-1,1,-3,0
395814612017,-1,4,-5,-5,-3,-2,-2,-2
395814612017,0,-5,0,-1,1,1,-1,-1
395814624134,-2,-2,-3,-2,-1,-1,-2,-1
395814624134,1,0,0,-2,0,-1,0,0
395814633150,-1,-1,0,1,-1,-2,-1,-1
395814633150,-3,-1,0,-1,0,1,0,-3
395814646577,1,-5,-1,5,1,-1,-1,-2
395814646577,-2,0,1,2,-2,-2,-3,0
395814655559,-3,1,-3,-2,1,1,0,-1
395814655559,-3,-8,-3,0,0,0,-2,-1
395814669454,-1,-3,6,0,-2,-2,-1,0
395814669454,2,2,3,-1,2,2,0,-1
395814678104,-1,-6,-1,-2,-4,-1,-3,-1
395814678104,-1,-2,-2,-2,-3,0,-2,0
395814684179,-1,-9,-6,-4,-2,-1,1,-1
395814684179,-1,0,-4,1,1,2,0,-2
395814693067,-4,-2,1,0,-2,-3,0,-1
395814693067,2,1,0,0,-1,0,-1,0
395814706567,-1,1,0,-2,-1,-1,-1,0
395814706567,-1,0,-1,-4,-2,-4,-2,-2
395814716197,0,1,-1,-1,1,0,0,-2
395814716197,-1,1,-1,0,0,0,0,0
395814730394,-1,5,0,-1,0,-2,-1,-1
395814730394,-3,-7,-7,-7,-3,-2,2,-1
395814732013,-1,-5,-4,-4,-1,-1,-1,-1
395814732013,2,13,23,6,2,2,0,0
395814743994,0,-4,-4,-1,0,-2,0,0
395814743994,-2,0,-5,-4,-4,-2,-2,-1
395814753107,-1,0,-2,0,-2,-1,-3,1
395814753107,-4,-4,-11,-7,-1,-3,-3,-1
395814766679,-3,-3,2,-1,0,1,-1,-3
395814766679,-1,4,0,1,-2,-3,1,-1
395814775519,-1,0,-1,-4,-2,-3,-1,-1
395814775519,-2,1,4,4,-1,-1,1,-1
395814790393,0,2,-4,-4,-2,-1,-1,0
395814790393,-4,-5,-6,3,1,1,-1,-1
395814792018,3,6,5,1,-1,-1,-2,-3
395814792018,-1,-4,-3,-2,-3,-2,-2,1
395814804129,-1,-3,0,0,-3,0,-1,0
395814804129,-2,-2,-3,-3,-2,-1,-2,-1
395814813049,0,6,1,1,-1,-1,0,1
395814813049,0,-1,-6,-3,-2,-3,-1,0
395814826555,-2,-3,-2,-2,2,1,0,-1
395814826555,-1,-3,-2,0,-3,-3,-3,0
395814835513,-3,4,-6,2,2,2,3,-1
395814835513,2,-10,7,-2,-5,-3,-3,-3
395814850510,-1,-4,-4,-3,-3,-1,-3,-1
395814850510,0,1,5,2,0,0,-1,-1
395814852069,-2,-5,-9,-3,-2,-1,1,-1
395814852069,-1,5,-2,2,0,-2,1,-2
395814864135,-1,-4,1,1,-1,0,-1,-1
395814864135,-1,-1,-3,-4,-1,-2,-1,0
395814873054,-3,-4,2,1,1,1,0,-1
395814873054,0,5,-4,-3,-2,0,-2,0
395814886544,-3,-3,1,4,1,-2,-1,-1
395814886544,-1,2,-2,-4,-1,0,0,1
395814895507,1,-15,-6,0,0,0,0,0
395814895507,0,16,0,-1,0,0,-1,-1
395814910513,1,1,0,-4,-2,-4,-2,-1
395814910513,-1,1,1,0,0,0,-1,-2
395814912033,-3,-11,1,2,-1,-1,-2,-3
395814912033,-2,-2,-3,0,0,-4,0,-1
395814924094,0,2,-1,-1,-1,-1,-1,-2
395814924094,-1,1,2,-1,0,-1,-2,-1
395814933038,0,2,0,-2,-1,0,-1,1
395814933038,-4,-3,-5,-1,0,0,-2,0
395814946507,1,2,0,-5,-4,-1,-3,0
395814946507,0,-2,5,6,0,0,0,-2
395814955573,1,2,-3,-1,-2,-2,-1,-1
395814955573,-1,-2,-2,-6,-1,-1,0,-1
395814970407,-1,-3,6,8,0,-1,-2,0
395814970407,0,2,-7,-5,-2,0,1,0
395814972000,0,1,1,-2,-2,0,-1,-1
395814972000,-4,-11,-5,1,-1,0,0,-1
395814984168,-4,-7,-5,-3,-4,-1,-1,-2
395814984168,4,15,1,0,-4,-2,-2,-1
395814993027,-2,2,3,1,0,0,-1,-1
395814993027,0,-7,-6,-4,1,1,0,-2
395815006642,-1,1,-2,0,-2,-2,0,-2
395815006642,-4,-3,-1,1,-1,-2,1,0
395815015537,0,-4,0,-2,-2,-3,-1,-3
395815015537,-1,1,0,-3,-1,0,-1,-1
395815030511,-1,0,-2,-1,-1,-2,0,0
395815030511,-1,-6,3,1,0,-2,-2,-2
395815032032,0,-3,-6,-2,-2,-1,-1,0
395815032032,-2,-2,-2,-1,0,-1,-1,0
395815044021,-1,3,3,0,0,0,0,-1
395815044021,1,-10,-6,-4,0,1,-1,-1
395815053046,-1,7,2,1,0,-1,-1,0
395815053046,0,3,0,0,-1,0,-2,-2
395815075359,1,0,-1,-1,0,-1,1,0
395815075359,0,1,-4,0,-1,0,-1,-1
395815076979,-2,-6,-4,-6,-1,-1,-2,-1
395815076979,1,1,4,8,0,-2,0,1
395815090348,-1,-5,-1,0,1,2,2,-2
395815090348,1,2,-3,-7,-2,-2,-2,-1
395815091993,-4,-6,2,12,2,-1,-1,1
395815091993,-3,-1,-11,-9,-3,-1,-1,-1
395815104110,-5,-4,1,-1,-2,0,-2,-1
395815104110,3,8,-2,0,-1,-2,-1,0
395815113008,1,-10,7,-2,-2,0,1,0
395815113008,-1,13,0,0,-2,-3,-1,-3
395815126481,0,-3,-6,-3,-1,-1,-1,0
395815126481,-5,-2,0,0,1,0,-1,-2
395815135446,-1,0,-6,-5,-4,-1,-1,0
395815135446,0,-8,4,2,1,0,0,0
395815150309,2,9,0,-4,-2,-2,-2,-1
395815150309,-3,-5,0,4,2,2,0,-2
395815151913,-1,5,2,2,0,0,0,-1
395815151913,-1,1,-1,-3,-1,-1,0,-2
395815163962,-1,1,-2,-4,-4,-2,0,-2
395815163962,-3,-5,0,4,2,-2,-1,-1
395815172987,0,4,3,0,1,-1,0,-1
395815172987,-2,-11,-3,-4,-2,-2,-2,-3
395815186469,0,-5,-3,0,-2,-1,0,-1
395815186469,0,8,-3,-2,-3,-2,0,-1
395815195492,2,0,-1,-3,-3,-2,-1,-1
395815195492,0,1,4,4,1,3,-1,0
395815210365,-1,-8,-5,-3,-1,-1,-1,0
395815210365,-1,-8,-8,-4,-4,-4,-2,-1
395815211978,-1,8,4,-2,-1,-2,0,-1
395815211978,-1,-1,2,-1,1,-1,-2,-1
395815224554,1,-3,-3,0,1,1,1,0
395815224554,0,5,2,-1,0,0,-2,-1
395815233006,-2,-3,-4,-4,-2,-2,-1,-3
395815233006,0,-2,-3,-1,-1,-2,0,-1
395815246508,-4,1,0,-1,0,-3,-2,-1
395815246508,3,-6,-1,1,-1,-1,0,0
395815255505,-1,-1,0,-3,-3,0,-1,-1
395815255505,-3,1,-2,-2,-2,0,0,-2
395815270324,1,0,0,2,1,0,-1,1
395815270324,-2,-15,-1,-4,-2,-2,-2,-2
395815271912,2,8,-2,-2,0,-1,-1,-1
395815271912,0,2,-3,-2,-1,-1,-1,-1
395815283958,1,-1,-5,-2,-1,0,0,0
395815283958,-3,-1,2,2,1,0,3,-1
395815292973,-1,-5,-4,-3,-1,0,-2,-2
395815292973,-1,-3,-4,0,-2,-2,-2,0
395815306455,-3,-3,3,2,-2,-1,-2,-2
395815306455,0,1,1,-1,-3,-1,0,-2
395815315491,-1,-3,-6,-2,1,-2,-1,-1
395815315491,0,3,-3,-1,0,0,-1,0
395815329677,-1,-4,-3,-4,-2,0,-2,-1
395815329677,-3,2,1,4,-1,3,-2,-1
395815336540,-4,-8,-2,-1,-3,-2,1,-1
395815336540,2,17,3,4,0,0,0,-1
395815346219,-2,-3,0,-4,-1,-2,-3,-2
395815346219,-1,-3,-4,-3,-3,-4,-2,-1
395815354286,0,2,-5,-5,-1,-1,1,-2
395815354286,-2,-6,3,3,0,-1,-1,0
395815366482,0,2,-2,0,0,-1,0,-2
395815366482,0,7,0,-4,-3,-1,-2,1
395815375493,-1,-8,-2,3,1,1,-1,-1
395815375493,-1,-3,-2,-3,-3,-1,0,0
395815389703,-1,2,2,1,-2,-1,-1,0
395815389703,-4,-5,0,-1,-1,-1,-1,-1
395815396498,1,5,1,-2,2,1,0,-1
395815396498,0,-4,3,9,1,-2,0,-2
395815412834,0,5,-1,-3,-3,0,-1,-2
395815412834,0,1,-4,-3,-3,-4,-1,-2
395815414453,0,-3,1,-2,-2,-1,0,-1
395815414453,-1,1,-6,-8,-4,-2,0,-1
395815426520,-1,-3,2,6,1,0,0,-1
395815426520,-2,-2,-3,1,1,1,0,-1
395815435491,0,-6,-5,1,0,0,0,-1
395815435491,1,11,6,0,-2,-1,-1,-1
395815449682,0,7,3,0,-2,-2,-1,-1
395815449682,0,-8,-1,-2,-1,0,-1,-1
395815456539,0,-6,-2,-1,-3,-1,0,0
395815456539,-2,-6,-5,-3,-1,1,-2,-1
395815464028,-2,-3,-5,-5,-4,-1,0,-2
395815464028,-2,4,4,3,2,0,-2,-2
395815472983,-2,-1,-2,-2,-2,-2,-2,0
395815472983,1,-2,-1,-10,-4,-1,-1,-2
395815486502,-2,1,8,15,5,0,0,1
395815486502,-2,-2,-5,0,-2,-1,0,0
395815495475,-2,9,1,1,0,-2,-2,-1
395815495475,-4,-11,-5,-4,0,-1,-1,-1
395815509639,1,-4,-3,-4,-3,-2,-2,-1
395815509639,0,-1,-4,-4,0,-2,-1,-1
395815516526,-2,0,1,-1,-1,-1,-2,0
395815516526,-2,-6,-2,4,-1,-1,0,1
395815532902,1,12,1,-4,-1,1,-1,-1
395815532902,-3,-4,3,-3,-1,-1,0,0
395815534470,3,5,-2,-2,-3,-3,-1,0
395815534470,-2,-3,1,-4,2,0,0,-1
395815546484,-3,-4,-7,-3,-2,-2,0,-1
395815546484,-1,-2,-2,-2,-4,-2,-3,-1
395815556028,-1,5,3,-2,-2,-2,-2,-1
395815556028,0,-7,-2,2,-1,-2,-2,0
395815569705,0,2,-1,-4,-1,0,0,-1
395815569705,0,4,-1,-2,-2,-2,0,-1
395815576478,-2,-9,-4,-1,-1,0,-1,-1
395815576478,-1,1,-3,1,1,1,1,0
395815592841,-1,-1,1,-3,0,1,-1,-2
395815592841,0,2,-1,0,-2,-1,-1,-2
395815594441,-1,-2,-3,0,-1,0,-1,0
395815594441,-2,-4,-6,1,-2,-3,0,-3
395815606492,2,6,8,-3,-4,-3,-1,0
395815606492,-2,2,-4,-4,-2,-1,-1,0
395815615528,-2,2,1,1,1,0,-3,-1
395815615528,-2,-5,-1,1,-1,1,0,-2
395815629878,-2,-7,-6,1,-1,-1,0,0
395815629878,0,-2,-2,-1,-3,-1,-2,-1
395815636554,-1,-6,1,0,-1,0,-1,-2
395815636554,1,10,2,-2,-1,-2,-2,0
395815652992,-3,-10,-5,-1,1,0,0,0
395815652992,-4,-1,-1,-3,-2,-1,0,-2
395815654629,-2,1,-1,1,-1,1,1,-3
395815654629,1,0,0,0,0,0,0,-1
395815666480,-1,-5,-4,-6,-2,-4,-2,-1
395815666480,2,-2,1,4,0,1,0,1
395815675584,-1,5,3,1,0,-1,0,-1
395815675584,-1,-3,1,-3,-2,-1,-1,-1
395815689786,2,3,0,6,1,-1,1,3
395815689786,-2,-8,-2,-1,0,-4,-2,-3
395815696665,0,10,2,-3,1,1,0,-1
395815696665,-2,-2,-1,1,-2,-1,-1,-1
395815713623,-1,-4,0,-4,-4,1,-1,0
395815713623,3,1,1,0,1,1,-2,-1
395815715260,-4,-4,-3,1,-2,-2,0,1
395815715260,0,-4,-3,-5,-1,0,0,0
395815726650,1,11,-2,-1,-2,0,-2,-2
395815726650,1,-5,-1,-1,0,0,1,0
395815735517,-2,-5,1,-1,-1,-1,-3,-1
395815735517,3,1,-2,0,-2,-1,0,0
395815749809,-4,-7,-1,-1,-2,-1,0,-2
395815749809,0,4,0,-1,-2,1,0,-2
395815756742,0,-2,0,2,-1,-2,0,0
395815756742,-1,1,3,2,2,-1,-1,-1
395815772977,-2,-4,-4,-7,-1,-1,0,-1
395815772977,-3,-2,-9,-7,-2,-3,-2,0
395815774459,2,-7,1,3,0,-1,1,0
395815774459,-1,4,8,1,0,1,-2,0
395815786657,-2,0,-6,-4,-1,-2,-2,-1
395815786657,0,-7,3,6,1,-2,1,-1
395815795497,-1,-4,-6,-8,-3,1,-2,-2
395815795497,-4,0,-3,-1,-1,0,0,-1
395815809844,-2,1,2,1,2,1,0,-1
395815809844,-1,-11,-1,-3,-2,-2,0,-1
395815816539,-2,4,-3,-2,-2,0,-1,-1
395815816539,0,-2,-2,0,-1,-1,-1,-2
395815833080,-2,-2,-2,-2,-1,-1,0,-1
395815833080,0,0,-1,-1,0,1,1,0
395815834494,-2,-2,3,2,-1,0,0,0
395815834494,3,2,-6,-5,-1,-3,-1,-2
395815846458,-3,-10,-4,-1,-4,-2,-2,-2
395815846458,0,7,3,3,2,-2,-2,-1
395815863015,-2,-9,-9,-9,-1,-1,-1,-1
395815863015,-6,5,0,-5,-3,-2,-2,-2
395815869723,3,1,10,14,3,1,-2,0
395815869723,-2,3,-5,-3,-1,-2,-2,-2
395815876514,-1,-3,2,1,-2,-1,-1,-1
395815876514,1,-4,-4,-6,-3,-1,0,0
395815892902,-2,0,3,-3,-2,-2,-1,1
395815892902,-4,2,-2,2,1,-1,-2,-1
395815894483,1,1,1,2,1,-2,0,-1
395815894483,-1,-1,0,-3,0,-1,-1,0
395815906446,-1,-1,-4,-4,0,-2,-1,-1
395815906446,-1,-1,4,1,-2,-2,0,-1
395815915502,-2,2,0,-1,-1,-2,-1,-1
395815915502,-3,-3,0,1,-2,-1,-1,0
395815929363,-2,2,-1,1,0,-2,-1,-1
395815929363,-3,-10,-7,-8,-3,-2,0,0
395815937991,4,4,2,1,-2,-2,-2,-1
395815937991,-1,0,-3,-1,-1,-1,-2,-2
395815952965,-3,-2,-8,-5,0,0,-1,-2
395815952965,-2,-7,-6,2,-2,0,-1,0
395815954522,5,6,13,-1,-2,-2,-2,-2
395815954522,-3,-4,1,5,1,2,3,-1
395815966614,1,-3,0,-2,-1,-1,0,-1
395815966614,-2,1,-4,-4,-2,1,0,-1
395815975526,-3,-1,-8,-3,0,0,0,1
395815975526,1,3,0,-2,-1,-3,-1,-3
395815989811,0,-7,-1,3,0,-1,-1,-2
395815989811,-1,6,4,2,-2,0,-1,-1
395815996555,-3,-3,-11,-5,-3,-1,-2,-2
395815996555,-1,0,6,0,-2,-1,-2,0
395816012964,0,-4,0,0,-2,0,0,1
395816012964,0,8,3,-1,1,-1,0,0
395816014589,-3,5,-2,-2,-3,-3,-2,-3
395816014589,-3,-6,-3,-2,-2,1,1,-3
395816026632,5,5,4,2,-3,-3,-1,-1
395816026632,1,-2,-6,-10,-1,0,0,1
395816035464,-4,-7,-2,6,2,0,0,0
395816035464,-2,0,0,2,0,0,1,-1
395816049882,-3,-2,-4,-5,-3,-1,-2,-3
395816049882,-1,-1,2,0,0,0,0,-2
395816056659,-1,-1,0,-3,0,-1,-2,0
395816056659,-2,0,1,-3,-2,-4,0,0
395816072992,0,-5,-3,6,4,3,1,0
395816072992,-4,-13,-12,-4,-3,-2,0,-1
395816074481,4,14,17,3,-1,1,0,-2
395816074481,0,-6,-3,-3,-3,-1,-2,0
395816086627,-4,0,-2,-6,-2,0,-2,-2
395816086627,2,-1,0,1,-4,-1,0,-1
395816110537,-4,-9,-4,2,0,1,0,-2
395816110537,0,4,-1,0,0,-1,0,-1
395816111135,-1,3,-4,-2,-3,-2,-1,-2
395816111135,-1,3,6,1,-1,-2,-2,-1
395816116611,0,-6,0,-3,1,1,-1,0
395816116611,0,0,-7,-7,0,1,0,0
395816131888,0,-1,1,4,0,-3,-2,-1
395816131888,-1,2,3,1,-1,-1,-1,-2
395816140575,-2,0,-5,-4,-1,0,-1,1
395816140575,0,-6,-5,0,-1,-1,-1,0
395816146449,0,-3,-4,-6,-3,-2,0,-2
395816146449,0,1,2,1,-1,0,-1,-1
395816155437,-3,5,0,-2,-2,-3,-3,-2
395816155437,1,-3,0,2,1,1,1,0
395816169664,-5,-9,-1,-1,-1,2,-1,1
395816169664,1,5,-1,-1,0,0,-2,-1
395816176459,0,-8,-4,-2,-1,-2,0,0
395816176459,-1,1,0,0,-3,-3,-1,0
395816192785,0,2,-1,0,0,-1,0,0
395816192785,0,2,-5,-4,-1,0,1,-1
395816194403,-3,-9,-5,-1,0,-1,0,0
395816194403,-1,6,1,1,-2,-3,-1,-2
395816206472,0,-1,4,-2,-2,-1,-2,0
395816206472,-2,-2,0,-1,1,-3,-2,-1
395816222960,2,-1,-2,-2,-1,0,0,-1
395816222960,1,5,3,-1,-1,-2,0,-2
395816229672,-4,-2,-4,-5,-1,0,0,-1
395816229672,2,-1,3,1,0,-2,-2,-1
395816236707,-1,-8,-2,0,-1,1,0,-1
395816236707,-2,2,-2,0,-1,0,-1,-3
395816260534,0,-1,-5,-2,-1,0,-2,-2
395816260534,1,2,10,-1,-3,-3,-2,1
395816261993,-1,5,2,0,-1,-1,-1,0
395816261993,1,-6,1,0,-1,0,-1,0
395816266649,-2,-4,-8,-4,-2,-1,0,-1
395816266649,-4,-6,-5,0,-1,-1,0,1
395816275599,1,-5,3,-1,-4,-1,0,0
395816275599,-2,-3,0,0,1,0,-1,0
395816289657,1,8,1,-2,-2,-1,-1,0
395816289657,-4,-4,-4,-4,-3,-1,0,0
395816296599,-3,3,0,6,4,1,0,0
395816296599,0,11,-2,-2,-2,-2,-1,-2
395816312172,0,-13,4,1,-1,-1,0,-2
395816312172,-1,-6,-7,-2,0,0,-3,0
395816319098,-1,-16,-10,-2,-2,-2,-1,0
395816319098,-4,-3,-9,2,0,-1,0,2
395816326617,4,41,18,-3,-4,-5,-4,-3
395816326617,2,5,0,1,-2,-2,-3,0
395816335449,-2,-4,-2,-4,-2,0,-2,-2
395816335449,1,-21,-8,1,-1,0,-1,-1
395816349639,-7,-10,-9,0,2,0,2,-1
395816349639,-2,3,-1,-4,-2,1,0,-4
395816356531,4,-1,6,10,1,-1,-1,1
395816356531,-3,7,-7,-14,-4,-1,-1,-2
395816372263,1,3,9,17,4,1,0,1
395816372263,2,-1,3,1,1,1,0,0
395816379232,-4,-6,-10,-7,-1,0,-1,-2
395816379232,4,-2,0,-4,-4,-3,-3,-2
395816395277,-3,-4,-14,-2,-3,-2,-1,1
395816395277,-7,-9,20,11,0,0,1,0
395816396933,11,9,-11,-15,-5,-2,-2,0
395816396933,-15,5,13,10,3,1,-1,-3
395816409709,-4,-13,-16,-6,-3,-2,1,-1
395816409709,2,3,-14,-5,-2,-2,-1,-2
395816416580,-3,6,7,-1,0,-1,0,-1
395816416580,3,-2,-5,-4,-2,-2,-2,-1
395816432194,2,-6,-7,-6,0,0,0,-1
395816432194,-7,-5,-13,-1,1,1,-1,-5
395816439065,-3,-5,0,-3,-3,-1,1,-1
395816439065,4,4,-1,-3,-4,-2,-2,-1
395816455337,-2,-3,9,0,0,1,0,-1
395816455337,2,-6,-16,-14,-4,-1,-1,0
395816456946,-2,7,9,11,4,1,2,0
395816456946,-2,-5,1,5,2,0,-1,-1
395816469801,-1,-2,-2,-7,-4,-2,-1,-1
395816469801,1,2,2,-2,-4,-2,-2,0
395816476558,-3,-3,-3,0,-3,-1,-2,-2
395816476558,-3,-4,4,2,1,0,0,0
395816492204,3,3,2,-1,-1,-1,-4,-1
395816492204,-3,-4,-3,1,1,0,-2,1
395816506624,-3,5,-1,-4,-2,-2,-1,-1
395816506624,3,6,9,1,-1,-1,-2,1
395816531735,3,-6,-35,-17,-2,-2,-2,-1
395816531735,0,11,38,32,9,2,2,3
395816533379,10,-8,-9,-5,-4,-4,-1,-1
395816533379,-23,-8,-4,-3,0,-2,0,-5
395816534162,-2,1,-2,-6,-2,-1,-1,0
395816534162,-2,-8,-4,-2,0,-1,0,-1
395816537981,-2,-3,-3,1,0,0,-2,-2
395816537981,2,-5,-8,-5,-3,-1,1,0
395816552317,-1,-35,3,1,-4,-5,-5,-5
395816552317,-1,2,-1,-3,1,1,0,0
395816559040,-3,1,4,1,-2,-1,-2,-1
395816559040,1,-18,-12,-5,-2,-1,-1,1
395816575377,-5,3,11,7,0,-2,-1,-1
395816575377,1,-15,1,-4,-4,-2,-1,0
395816576880,-2,31,-3,-3,-2,-2,-1,-3
395816576880,2,1,8,5,1,1,-2,1
395816589772,1,9,3,0,1,2,1,0
395816589772,-3,-16,-28,-7,-2,-1,0,-1
395816596685,-10,-17,14,7,2,1,-1,-2
395816596685,16,39,34,-1,-4,-4,-8,1
395816612344,2,13,-4,-1,-2,-1,19,4
395816612344,-5,-20,-8,-6,-2,-1,-3,-2
395816619114,-8,-18,-23,-4,-1,2,4,0
395816619114,-2,-4,0,8,3,4,-5,-2
395816635454,7,4,13,1,1,0,-7,-2
395816635454,-5,12,-9,-7,-2,-3,2,-2
395816636944,0,2,2,-3,-3,-3,-5,0
395816636944,-1,-4,-3,-1,-5,-4,0,-2
395816651057,1,5,5,-1,-1,2,-1,0
395816651057,-2,4,-29,-7,-2,0,-1,-1
395816656478,6,4,27,18,3,0,-2,1
395816656478,-6,3,-8,-4,-1,-1,0,-3
395816672144,-1,-10,-2,2,0,-1,-1,0
395816672144,2,6,-4,-12,-7,-3,-5,0
395816678979,-4,-7,-5,-2,2,1,0,-1
395816678979,-2,-4,-9,1,1,1,3,1
395816695524,-6,7,2,-1,-1,-2,-5,-2
395816695524,4,4,17,4,0,-1,0,-1
395816696931,8,1,-6,-7,-4,-2,-2,-1
395816696931,-7,-10,1,1,-1,-3,-1,-1
395816709746,-2,0,-8,-2,0,-1,-4,0
395816709746,3,10,16,4,-1,-2,-1,1
395816716488,-3,3,-2,-2,-2,-1,0,-2
395816716488,3,-10,-19,-11,-4,-3,-1,-2
395816732284,3,12,9,6,1,-2,-2,-2
395816732284,-5,-5,-5,-2,1,1,0,-1
395816739119,-6,-9,-12,5,0,0,-2,-2
395816739119,5,32,28,0,-2,-1,-2,-1
395816755349,-2,-4,-5,-2,-3,-1,0,1
395816755349,6,2,5,1,-1,0,-2,-1
395816757012,-6,-9,-8,-8,-3,-1,-2,-1
395816757012,-2,-12,-9,5,1,0,-1,-1
395816769751,1,-5,-15,-5,-3,-1,-1,-1
395816769751,1,5,22,6,4,1,-1,-2
395816776608,-4,3,-4,-6,-2,-2,0,1
395816776608,1,-10,-5,-2,-1,-3,0,-1
395816792333,-2,-6,-2,-2,-1,-1,-3,0
395816792333,-1,-4,-4,-3,-1,-2,-2,-1
395816798962,1,6,2,-1,-2,-1,-2,0
395816798962,-1,-3,0,2,1,0,2,0
395816815506,-4,-10,3,1,-1,-2,-2,-2
395816815506,-2,-3,-1,0,-2,0,1,0
395816817046,3,6,4,-1,-2,-3,0,0
395816817046,-1,-10,-11,-3,-2,-2,-1,-2
395816829791,-1,4,8,0,1,-1,1,-1
395816829791,-1,1,-3,0,-1,0,-1,-1
395816836642,0,2,-1,-1,0,-2,-2,-2
395816836642,-2,-1,2,-4,-2,-2,-1,-1
395816852211,-2,-2,-9,-1,3,4,0,0
395816852211,0,5,2,5,1,-1,-1,-2
395816859130,1,-6,-6,-4,-1,0,-1,-1
395816859130,-1,-6,-5,-5,-2,-1,0,-2
395816875345,-1,2,17,9,2,1,0,-2
395816875345,2,-3,-6,1,-2,-3,-1,0
395816876936,0,0,-5,-3,-2,0,0,0
395816876936,0,0,-3,-1,-1,-1,0,0
395816889851,0,-1,-9,-4,-2,0,-2,-1
395816889851,-2,0,-3,-3,0,-1,0,0
395816896625,-2,3,7,2,-1,-2,-1,-2
395816896625,-1,-20,-6,0,-2,0,0,0
395816912316,-3,15,4,-1,-1,-2,-2,-1
395816912316,3,4,0,0,-1,-4,-2,-1
395816919017,-1,1,6,-1,-2,-1,-1,-2
395816919017,-4,-3,-3,1,2,2,-1,1
395816935514,3,-6,4,0,0,-3,-1,0
395816935514,-7,0,1,-1,-1,2,0,0
395816936968,-8,-6,-7,-4,-2,-4,-1,-2
395816936968,0,2,2,3,0,1,1,-2
395816950541,-7,-3,-19,-6,-1,2,0,0
395816950541,7,8,23,-3,-3,-3,-2,1
395816957925,4,-7,0,0,0,-1,-1,0
395816957925,-4,4,0,-3,0,-2,-1,-1
395816972184,-1,-5,-2,0,-1,-2,0,0
395816972184,-2,-1,-12,-4,-1,0,0,-2
395816978879,-2,-3,-1,0,-1,-1,2,0
395816978879,3,2,-1,-5,-3,-2,-1,-2
395816995269,2,-3,-7,-9,-5,0,-1,-2
395816995269,-5,-2,7,21,5,1,-1,-1
395816996879,3,2,0,-1,-1,-1,0,-2
395816996879,-2,6,9,-1,-1,-2,-2,0
395817008998,3,-4,3,-2,-3,-3,0,-2
395817008998,-1,-3,-17,-13,-4,-2,-1,-1
395817017930,-3,-5,-16,-20,-6,-2,0,-2
395817017930,3,11,16,39,10,2,-3,1
395817032374,-4,-5,-3,-5,-2,1,-5,-3
395817032374,0,-6,-30,-32,-7,4,-9,-2
395817039175,-3,-2,22,35,15,67,6,-8
395817039175,-4,-2,20,23,-6,-74,-4,-10
395817055630,2,-4,-10,-4,-13,-35,20,8
395817055630,10,-4,-12,-24,-8,-9,5,29
395817056945,8,20,63,46,22,100,-13,6
395817056945,-10,-19,-20,-23,-10,-64,14,-15
395817068957,2,12,16,15,3,14,6,-18
395817068957,-12,-11,-13,-6,-20,-37,-9,-12
395817077907,3,-9,-44,-50,-19,-24,-2,3
395817077907,1,-3,-7,-4,10,56,-10,5
395817092291,-2,0,9,1,7,9,-3,-3
395817092291,3,-3,7,0,5,7,6,-2
395817099053,-10,-4,-3,-13,-3,-20,-5,-5
395817099053,6,10,17,20,6,18,3,1
395817115439,-2,-1,-6,-3,-2,-7,-5,4
395817115439,0,1,10,11,7,20,-3,-4
395817116891,-6,-7,-13,-11,-10,-44,-1,-1
395817116891,1,-2,-19,-11,-4,11,3,4
395817129563,3,-1,5,-9,0,3,-6,5
395817129563,-5,3,5,13,4,2,-2,-4
395817138026,5,-12,-9,0,-3,-22,5,-2
395817138026,0,15,-10,-19,-5,9,-4,2
395817152159,0,-4,22,16,3,13,-10,-15
395817152159,-12,-2,-10,0,-1,-3,14,14
395817158946,16,-4,12,1,-3,-21,0,19
395817158946,-10,-3,-37,-11,1,18,0,0
395817175477,4,-2,28,6,0,-6,-12,7
395817175477,0,-24,17,6,3,9,34,-19
395817176883,0,-5,-13,-2,-5,-16,20,-17
395817176883,-1,3,13,-2,5,9,-23,4
395817188956,-11,-23,-13,-2,-9,-15,-39,18
395817188956,3,9,5,6,-3,13,61,-6
395817204054,-1,-4,-28,-4,12,1,-56,9
395817204054,13,5,9,-6,-4,-4,-5,-7
395817212263,-4,4,-24,-7,-4,-1,26,-10
395817212263,1,13,37,9,0,-3,-33,4
395817218920,-11,-13,-19,-2,-9,-10,8,-8
395817218920,-1,9,9,-5,-4,2,11,-2
395817234750,1,4,-7,-2,4,3,-14,6
395817234750,-2,-5,-8,1,-2,-4,-13,-10
395817241565,-1,12,4,1,-1,-5,11,-2
395817241565,1,-12,-7,-5,0,2,-2,5
395817249114,-4,-3,-23,-14,-4,2,13,-4
395817249114,-1,-6,-3,-7,-1,-3,-18,0
395817257989,0,13,39,5,4,-1,5,-1
395817257989,5,-1,-36,-25,-9,-1,-7,4
395817272335,-8,-12,-8,0,10,35,-95,-19
395817272335,8,6,-5,-6,2,9,76,-12
395817278969,-14,1,-18,-8,1,7,-2,23
395817278969,4,-14,-80,-30,-11,-32,-4,21
395817294820,-9,0,38,-44,12,75,-14,-71
395817294820,1,31,8,21,19,-51,5,-11
395817301575,47,9,-15,-22,-31,-45,69,86
395817301575,0,-5,-16,-24,-8,16,17,-20
395817309041,3,-1,-41,-21,-13,-3,-11,28
395817309041,-43,-23,-14,-18,-8,28,-68,-42
395817317935,-17,1,5,18,13,17,-8,-55
395817317935,-1,-3,17,-1,-4,-4,-10,3
395817332257,-5,-23,-8,12,6,-10,20,2
395817332257,8,-8,17,12,7,15,-7,-4
395817339023,-6,34,2,8,0,-26,-13,-2
395817339023,11,8,1,-1,-5,12,-3,2
395817354573,-37,-4,24,24,7,-16,29,-7
395817354573,13,-14,-15,2,-4,-21,-6,24
395817361382,-3,19,-13,-18,-9,12,-16,-11
395817361382,1,12,47,19,11,9,-1,-11
395817377734,20,44,-5,4,-6,-23,29,8
395817377734,-12,-7,-8,-19,-12,-8,-15,15
395817379433,-6,-61,-28,8,10,13,-9,-16
395817379433,-7,-7,27,9,1,5,-15,-16
395817392245,13,29,14,7,-7,-26,50,13
395817392245,8,18,6,-10,-5,5,-30,5
395817399055,-7,-29,0,-4,2,5,-5,-18
395817399055,-10,2,4,14,5,-6,6,4
395817414861,-1,-28,-46,-12,-7,-4,0,4
395817414861,6,25,7,-2,-2,4,-2,1
395817421606,3,60,20,6,4,2,3,-9
395817421606,0,-23,7,1,-4,-5,0,6
395817437916,-10,-11,4,-1,-1,-4,-3,4
395817437916,12,-27,-16,3,1,6,2,-4
395817439432,-3,2,7,0,-3,-7,-12,-2
395817439432,-6,-6,-6,-2,-2,5,6,0
395817452334,-1,-8,6,3,0,-5,0,-3
395817452334,1,1,-11,-4,2,-3,-3,7
395817459047,-4,-8,-3,-4,-3,1,1,-2
395817459047,-4,0,4,2,2,3,0,-5
395817474631,9,0,6,2,-3,-6,0,6
395817474631,-17,-22,-19,-5,-1,1,-2,1
395817481479,10,11,8,-4,1,5,0,-1
395817481479,-10,-9,-1,5,1,-1,2,-5
395817505393,4,7,-6,-7,-5,-10,-1,3
395817505393,9,14,11,7,1,0,0,5
395817506937,-6,-5,4,0,-1,1,-2,-7
395817506937,-2,-9,-21,-8,0,-3,1,0
395817512214,7,-1,0,10,3,0,1,4
395817512214,-5,10,-7,-6,-4,-2,-6,-6
395817519148,-2,-18,3,-7,-6,-5,-1,-2
395817519148,-2,23,0,-6,0,-1,1,-1
395817534645,-10,-8,-22,-11,-5,-4,-2,-2
395817534645,2,1,13,8,0,1,2,1
395817541593,4,8,-1,5,1,-2,-3,1
395817541593,-6,1,-3,-9,-6,-2,-1,-5
395817557774,3,2,3,1,1,0,-2,-2
395817557774,-6,-8,-8,-1,0,-2,1,1
395817559406,-3,-4,-10,-10,-4,1,-2,-3
395817559406,4,-1,11,11,3,1,2,1
395817572150,4,-8,-5,-2,1,-2,0,1
395817572150,-4,16,-2,-4,-4,-3,-2,-1
395817579076,0,-1,6,2,0,-2,-1,0
395817579076,-5,-8,-2,-1,0,3,1,-2
395817594876,5,-3,11,11,2,-3,0,1
395817594876,4,-20,-34,-10,-2,-1,-1,0
395817601375,-7,13,19,6,-2,-1,-3,-4
395817601375,-14,-13,-1,1,-2,-3,-2,-3
395817617949,1,11,1,-4,-2,-1,-1,0
395817617949,-1,-16,-5,1,1,2,-1,-1
395817619379,-13,-11,-10,-3,0,-1,0,-3
395817619379,4,5,-4,-4,-3,-2,-2,-1
395817632359,5,11,11,12,2,0,0,1
395817632359,2,5,19,3,0,-1,1,1
395817638975,2,-35,-16,-5,-1,-1,-2,-3
395817638975,1,-3,5,3,-2,-1,0,0
395817654816,-7,-10,-7,3,-2,-2,-1,-2
395817654816,6,16,11,3,1,-1,-1,-1
395817661424,1,-7,-2,-4,-2,-1,-3,-1
395817661424,6,29,0,-2,0,0,-1,1
395817678007,-19,-23,-4,-4,-4,-4,-6,-14
395817678007,4,10,-1,-2,-1,2,3,10
395817679415,5,-3,-1,0,-2,1,4,4
395817679415,-19,7,0,3,-2,-3,-1,0
395817692156,7,-9,-8,-4,0,1,1,2
395817692156,-3,13,21,-4,-2,-3,-6,-9
395817699856,-2,7,-11,-1,0,1,0,-2
395817699856,9,-13,23,7,2,0,1,3
395817714700,1,-11,-10,-7,-2,-3,-2,-2
395817714700,0,-24,-22,-7,-4,-1,-1,-3
395817721459,-9,-1,-4,-2,-4,-1,-1,0
395817721459,3,0,-3,2,-1,-1,-3,-1
395817737785,-5,9,9,-4,0,-2,-2,2
395817737785,7,8,-2,2,2,0,0,0
395817739392,5,8,10,3,0,-2,-3,-2
395817739392,-3,-16,-13,-5,-2,0,-2,-2
395817752316,-1,14,9,1,-3,1,1,1
395817752316,-13,-18,-4,-3,-2,-2,-2,-1
395817759098,5,27,5,6,-1,-2,-2,-4
395817759098,0,-6,-11,-11,-2,0,1,-1
395817775437,3,0,8,7,2,0,1,1
395817775437,-2,-4,-3,-2,1,-1,0,-1
395817781541,-7,-14,-1,-3,-2,-3,-2,-2
395817781541,3,0,-7,-6,-2,-1,-2,-4
395817797166,-2,1,-13,-11,-3,0,0,5
395817797166,2,9,30,32,7,4,0,0
395817797899,-7,-13,-5,-3,2,-2,1,-2
395817797899,13,34,6,1,-3,-3,-1,1
395817812904,-6,-22,-9,-7,-1,0,-2,-3
395817812904,-1,6,-8,-7,-3,-2,-1,-2
395817818947,12,-3,0,2,0,0,-1,1
395817818947,-14,-22,-4,1,0,-1,0,-3
395817836919,-33,12,1,0,-1,-1,-2,-4
395817836919,13,10,3,-4,0,0,0,2
395817842156,-4,-5,-1,-3,-2,-1,-3,-3
395817842156,2,-5,-3,-3,-2,1,-7,-4
395817857783,3,0,3,1,-2,-1,5,3
395817857783,-4,-2,-6,-3,-1,-2,-1,1
395817859347,-2,-6,0,2,1,-3,0,-3
395817859347,0,-7,-11,-3,-1,0,-1,2
395817873007,6,4,7,-3,-1,-2,-2,0
395817873007,-2,4,15,19,3,1,-1,-4
395817879073,1,-10,-2,-2,-2,-2,-2,1
395817879073,-1,18,-4,1,0,-2,0,-3
395817895422,9,0,0,-7,-4,-3,-2,-1
395817895422,-3,-9,-15,-10,-3,-3,-1,-1
395817901416,-4,0,4,2,-1,2,1,2
395817901416,4,-6,-4,3,1,3,5,3
395817917329,2,0,1,-2,3,1,1,0
395817917329,-3,-3,-2,-6,-1,1,1,-1
395817917889,1,7,-1,-1,0,1,2,0
395817917889,5,7,9,2,0,0,1,1
395817932967,13,-1,-7,-1,-1,0,-1,1
395817932967,-25,-15,-13,-8,-4,-4,-3,-5
395817939009,-6,-2,-2,-2,0,-1,0,-1
395817939009,23,5,3,1,1,-1,1,2
395817955505,-8,6,1,6,1,-2,-2,-2
395817955505,2,-4,-2,-8,-2,0,-2,-8
395817961421,-5,1,0,0,1,0,2,0
395817961421,0,-14,-6,-6,-1,-1,-1,7
395817977202,3,-7,12,13,3,-1,0,-1
395817977202,8,30,4,-7,-3,-1,-1,1
395817977952,-2,-14,-6,-4,-2,-2,-3,-4
395817977952,-7,-9,-2,-4,-1,-1,0,-4
395817992946,0,1,-11,-4,1,-1,-1,0
395817992946,-2,-12,-3,2,-2,-2,1,1
395817998944,-1,13,5,1,0,-1,-2,1
395817998944,-4,-3,3,-2,1,0,-1,-1
395818015523,-4,-16,-9,-5,-3,-2,-1,-1
395818015523,-2,-2,-1,-9,-2,0,-2,-2
395818021466,5,19,3,8,1,0,0,-1
395818021466,-9,-18,-4,-1,-1,-1,-1,-4
395818037104,0,6,1,-1,-1,-2,-1,-2
395818037104,4,-6,0,2,1,0,-2,1
395818037999,4,-5,-6,-10,1,2,0,1
395818037999,-7,7,-1,0,0,-2,-3,-7
395818053032,0,2,12,6,0,9,6,8
395818053032,14,-4,-4,-8,-3,-2,5,2
395818058931,-17,-13,-1,4,1,-10,-2,-2
395818058931,2,6,7,2,-1,-3,-1,-3
395818075428,-1,0,-7,-14,-4,-4,-8,-3
395818075428,-2,5,2,22,3,6,0,0
395818081517,20,-1,2,-4,0,5,1,1
395818081517,-31,-3,-9,-7,-3,-4,-5,-3
395818097274,9,20,6,4,-1,0,1,-2
395818097274,-7,-26,-15,-13,-4,-1,-1,0
395818097861,2,4,21,14,1,2,-1,-1
395818097861,-1,0,5,10,4,12,1,-1
395818112869,-7,-10,-11,-9,-3,-8,-4,-6
395818112869,-8,-8,-4,-2,-4,-20,3,4
395818118888,8,9,-9,-4,0,-8,-5,6
395818118888,9,5,4,-3,-3,3,2,-1
395818135454,5,8,5,4,1,12,-2,-3
395818135454,0,10,18,2,1,11,-4,-5
395818141425,-13,-62,-32,-14,-9,-20,2,-2
395818141425,1,70,18,6,0,-3,-2,0
395818156375,-7,-19,-11,-4,-1,-7,-3,-3
395818156375,2,15,3,-4,-3,-2,-4,-1
395818163921,5,34,24,12,1,7,-1,0
395818163921,-21,-83,-37,-3,-6,-6,-4,-9
395818172891,2,8,-15,-9,-3,-4,0,3
395818172891,0,4,9,4,-1,4,-5,-3
395818178891,-9,-8,-13,-27,-8,-2,-29,-4
395818178891,21,5,28,32,8,6,45,3
395818195393,7,34,-11,-11,3,37,-53,-9
395818195393,-16,-27,20,17,14,34,53,11
395818201388,11,10,-26,-13,-15,15,27,7
395818201388,5,-5,27,1,-13,-37,-33,-15
395818216510,-2,-45,-13,5,1,-15,10,5
395818216510,11,54,7,-3,4,27,-27,-12
395818224014,-29,-33,-22,-2,3,9,-14,-14
395818224014,-7,-8,-30,-21,-4,-7,6,9
395818241036,15,-8,-14,6,1,14,-17,-6
395818241036,-8,-6,10,8,0,19,15,-11
395818241872,-2,16,13,5,-7,-40,57,3
395818241872,13,17,7,14,8,13,-47,7
395818255445,-9,37,28,-1,-11,-58,-5,-3
395818255445,7,-15,-21,-5,0,35,35,-4
395818261535,-9,-9,-27,-19,2,54,0,15
395818261535,16,43,27,11,16,-10,11,-6
395818276469,-1,-48,-30,-4,11,30,-108,-19
395818276469,-56,-40,-24,-7,-20,9,69,-2
395818283983,34,12,20,14,16,-4,52,4
395818283983,-14,-26,-51,-31,-20,-29,16,-1
395818301015,4,82,105,30,-6,26,-45,20
395818301015,4,-89,-90,-45,-19,-65,-128,-16
395818302039,-44,-12,30,0,2,17,104,-24
395818302039,4,38,27,25,20,15,-36,15
395818315437,-14,-2,-61,-9,-4,-3,-7,-21
395818315437,16,52,83,5,3,0,-43,11
395818321654,11,61,81,88,13,-12,-33,-5
395818321654,-28,-110,-45,-25,-14,-21,5,-11
395818336551,8,9,-21,-26,1,16,47,7
395818336551,-5,20,-6,-9,-12,-10,-15,-18
395818344009,-7,-50,-45,-30,-5,-12,-55,25
395818344009,12,1,13,0,8,25,10,-27
395818359625,8,27,33,20,12,33,-4,2
395818359625,1,-51,-59,-57,-41,-86,39,26
395818360414,57,100,58,83,28,-40,32,34
395818360414,-39,-100,-103,-35,-23,8,11,-11
395818375456,-3,14,86,28,-6,-24,33,1
395818375456,15,22,0,-19,14,21,-40,-9
395818381392,5,3,-121,-116,-20,18,-38,1
395818381392,-3,34,53,66,16,17,-12,3
395818397808,-14,17,-31,38,8,4,-16,29
395818397808,-5,-17,-37,-68,-18,103,-6,-13
395818404106,6,31,39,73,25,-96,71,-12
395818404106,-24,-15,54,17,-17,8,-2,3
395818421079,-15,-30,-106,-100,-12,10,22,1
395818421079,-3,-24,-37,78,22,-16,-33,-2
395818421880,-26,30,-34,-50,-8,57,-65,-47
395818421880,56,89,-11,-15,-11,-18,15,66
395818435403,-12,-100,-63,-48,-17,-37,25,-17
395818435403,8,-9,-7,-60,5,-20,10,4
395818441412,-4,-31,-5,-36,6,86,-60,-24
395818441412,33,-16,-53,-13,42,54,40,22
395818456415,-46,-17,-52,-15,-39,-13,67,-9
395818456415,9,-11,16,-5,13,34,22,6
395818463916,5,-61,-106,-75,-22,-12,19,-3
395818463916,3,77,110,76,22,25,-21,-8
395818479682,13,-27,71,-46,7,-25,-21,2
395818479682,-27,12,-50,21,11,-3,-17,-17
395818480514,-2,46,82,60,25,24,-10,17
395818480514,1,8,-57,-43,-19,-9,-28,-6
395818495358,-10,-35,-40,-45,-3,3,-1,-12
395818495358,-1,44,103,83,15,-18,19,0
395818501598,-7,-60,-72,-50,-42,-5,-44,-5
395818501598,12,29,-71,-27,15,-11,8,0
395818516414,9,50,-15,39,30,77,-12,3
395818516414,-13,1,-128,-48,-29,-76,113,41
395818523884,-2,12,102,84,17,-68,-33,8
395818523884,-16,19,-85,-85,-30,-2,-43,-34
395818539515,40,-3,-79,-64,12,38,1,7
395818539515,-41,-31,12,94,23,28,-46,-9
395818540312,-14,-52,-73,-62,-24,32,-22,-7
395818540312,3,-1,-15,-15,-29,-82,-20,2
395818555394,-10,51,127,73,31,4,14,-19
395818555394,19,26,-110,-84,-20,-16,13,17
395818561503,-3,-10,-42,-46,-29,-2,-11,-16
395818561503,11,-53,68,97,32,53,12,-1
395818576399,-36,-1,-4,20,-13,-26,12,6
395818576399,18,-23,127,68,47,31,-11,-2
395818583899,0,58,-78,-49,-15,15,-11,-5
395818583899,32,5,-10,25,18,36,38,43
395818599574,13,-9,79,81,8,-21,1,-11
395818599574,-10,4,-3,-4,-12,26,26,28
395818600334,19,-8,-66,-24,-3,33,-26,-21
395818600334,57,-34,-67,-56,-1,-55,12,4
395818615361,12,35,-82,-78,-57,-52,6,22
395818615361,43,15,67,86,41,6,-48,-30
395818629538,21,-13,-10,-12,1,7,16,13
395818629538,-17,-19,-47,-90,-28,6,-52,-25
395818636336,11,-10,-37,32,-1,-28,32,16
395818636336,24,24,-57,-56,-14,-11,1,-1
395818643971,-88,-9,34,23,4,8,12,-7
395818643971,-46,-17,89,75,32,38,2,-9
395818659676,-23,21,34,65,13,-60,-11,-17
395818659676,-98,-33,-11,-46,-22,13,-27,-4
