timestamp,emg1,emg2,emg3,emg4,emg5,emg6,emg7,emg8
399208405730,-1,-88,-12,-22,45,1,24,-4
399208405730,8,-20,1,-14,44,2,27,-18
399208406687,-1,62,-7,10,-5,4,-16,4
399208406687,-6,13,-10,9,-52,-9,-23,13
399208410114,-3,-53,-6,-8,6,-1,6,0
399208410114,2,-22,-13,-11,42,4,20,-17
399208411677,1,35,15,4,-14,-1,-5,-5
399208411677,-7,23,16,12,-46,-8,-24,13
399208417198,1,-42,-25,-11,10,0,6,2
399208417198,6,-34,-7,-27,45,4,23,-14
399208431894,3,43,19,24,-11,0,-8,-2
399208431894,-7,10,-1,7,-35,-4,-21,9
399208440889,0,-44,-15,-7,8,-1,6,-1
399208440889,2,-11,-11,-10,37,6,17,-10
399208446571,-1,51,18,-5,-30,-5,-13,-1
399208446571,-4,-4,8,25,-17,-2,-12,9
399208462971,0,-41,-6,-19,15,-2,13,-3
399208462971,2,1,-7,-6,20,4,6,-9
399208470098,-1,32,11,1,-26,-2,-11,1
399208470098,-3,-9,1,3,4,0,-5,5
399208478007,-2,-35,5,15,16,0,8,-5
399208478007,-1,-3,-20,-13,5,-1,2,-5
399208524655,-3,-88,-34,-18,13,-1,9,4
399208524655,5,-116,-44,-46,100,5,54,-22
399208525524,-1,59,-3,0,-5,1,-4,-7
399208525524,-4,100,59,41,-89,-7,-50,17
399208526447,-1,-47,-18,-3,1,-2,1,4
399208526447,2,-91,-35,-33,69,5,37,-14
399208528851,3,24,2,-2,15,3,9,-7
399208528851,-4,90,32,37,-72,-2,-41,12
399208537031,-2,-23,0,0,-21,-3,-8,7
399208537031,-1,-80,-29,-34,58,4,32,-9
399208543855,2,17,13,0,19,1,5,-10
399208543855,-6,80,-4,26,-65,-5,-38,13
399208551272,-3,-31,13,9,-13,-3,-4,6
399208551272,4,-72,-20,-29,57,1,32,-12
399208566328,-1,25,27,5,9,2,3,-6
399208566328,-5,57,-18,12,-56,-7,-30,10
399208574534,0,-22,6,-1,5,0,1,0
399208574534,-1,-43,-21,-26,40,1,21,-9
399208581397,1,29,7,10,-6,-3,-5,-3
399208581397,-1,34,28,11,-38,-2,-23,8
399208597084,-3,-3,-16,-3,3,0,4,-3
399208597084,1,-26,-8,-6,23,2,13,-5
399208603854,-2,10,-2,-10,-5,-4,-5,-2
399208603854,0,23,15,20,-21,-1,-9,6
399208611349,0,-22,2,-11,7,2,2,0
399208611349,0,-22,8,7,18,1,9,-4
399208626373,-2,8,-14,-6,-1,2,-2,-2
399208626373,-1,22,10,3,-18,-6,-14,1
399208634517,-4,-28,-28,-18,-11,-2,-2,-1
399208634517,4,-22,-14,-20,14,3,9,-2
399208641328,0,11,14,17,15,3,3,-2
399208641328,-3,16,5,-3,-19,-4,-9,3
399208657073,0,-13,-5,3,-1,-2,-2,-1
399208657073,2,-17,4,-5,11,0,4,-5
399208663885,0,4,-20,-11,-9,-2,-3,-1
399208663885,-3,14,5,6,-10,2,-6,5
399208671225,-3,-8,1,1,1,-2,0,-1
399208671225,0,-5,-7,-7,7,0,4,-5
399208686254,-1,15,6,2,-5,-1,-3,1
399208686254,-4,6,3,-3,-11,0,-3,1
399208693831,0,-4,6,26,9,0,0,1
399208693831,-1,-8,0,-5,8,0,1,-2
399208702703,-4,5,-6,-8,-10,-4,-2,-1
399208702703,-2,7,-2,11,2,2,-2,2
399208716974,3,-19,5,-5,-1,2,2,1
399208716974,-1,-8,-8,-2,1,0,0,-4
399208723877,0,15,-2,-1,-6,-3,-4,1
399208723877,-4,4,-4,-4,-9,-3,-4,0
399208731327,0,-18,-1,-7,0,-2,0,-4
399208731327,1,-12,-1,13,2,0,0,-1
399208746296,-2,20,6,-7,-4,1,0,-1
399208746296,-3,4,-3,-4,-1,-1,2,0
399208753801,2,-17,6,8,5,1,0,1
399208753801,1,-2,19,5,-2,0,-1,-3
399208762735,-3,18,-40,-7,-6,-2,-5,-1
399208762735,-2,-1,-1,-9,0,-1,0,0
399208776914,1,-13,1,19,15,1,1,-2
399208776914,1,-2,-12,-4,-3,-3,-3,-5
399208783865,0,14,0,0,-4,0,-1,0
399208783865,-2,0,25,1,-2,-2,0,-2
399208791353,0,-12,-7,-19,-4,-2,-1,-2
399208791353,2,-3,-3,-3,-6,-1,-3,-2
399208806388,-4,15,1,8,2,-3,-4,-2
399208806388,-5,-4,-31,-14,-1,-6,-1,-1
399208813875,-2,-13,10,-6,-1,-1,-1,-1
399208813875,-1,2,8,3,-9,-2,-2,0
399208822729,0,11,21,3,7,1,-2,1
399208822729,-3,-10,-35,-17,0,1,4,-4
399208837151,-2,-8,24,16,-1,-1,-2,-2
399208837151,2,6,0,-2,-8,-3,-7,1
399208843703,-2,7,-5,-7,-6,0,-2,1
399208843703,-1,-6,11,9,10,3,6,-1
399208851447,0,-7,-10,-14,0,1,1,-2
399208851447,-2,8,5,3,-7,0,-5,-1
399208867715,1,4,0,7,-3,-1,-3,-2
399208867715,-3,-4,-7,-12,4,-2,0,-3
399208898932,-2,-6,-5,-7,-1,-1,1,-2
399208898932,0,7,6,7,-7,-1,-4,2
399208900531,-1,5,6,5,-4,-3,-1,1
399208900531,1,-12,-18,-6,7,1,5,-3
399208901361,0,-3,-4,5,4,1,1,-3
399208901361,0,4,-1,1,-6,-1,-7,-1
399208905384,-1,1,-14,-7,-7,0,-2,1
399208905384,0,-8,5,4,5,-3,4,-2
399208911395,-1,-5,-9,-13,-2,-2,0,0
399208911395,4,4,20,16,-2,1,-4,1
399208926346,-2,3,-3,0,-3,0,-2,3
399208926346,-2,-7,-2,-5,8,-2,3,0
399208933751,-1,5,2,-5,-3,-5,-2,-2
399208933751,-2,6,1,5,-4,1,-4,1
399208948875,-1,-3,4,-3,-4,-1,0,0
399208948875,-1,-5,-2,0,6,-1,1,-3
399208957091,0,-3,20,3,5,3,0,-2
399208957091,-1,4,-20,-5,-15,-4,-6,-2
399208963869,0,2,0,6,3,-2,-2,0
399208963869,-1,-6,-3,-14,1,0,8,-2
399208971192,-2,-2,0,1,10,0,1,-2
399208971192,-1,3,2,4,-11,-1,-7,1
399208986358,0,-8,0,0,-4,0,-3,-1
399208986358,-2,-4,-1,-8,11,0,4,-2
399208993895,0,0,-19,-10,-2,-1,-2,-3
399208993895,0,6,-2,13,-10,-2,-6,-2
399209008666,-2,-9,-11,-13,-9,-4,-3,0
399209008666,3,-8,-1,10,10,0,3,-3
399209016899,-1,1,24,2,7,1,1,-4
399209016899,0,11,-1,-2,-7,-3,-6,0
399209023698,0,-8,1,5,-2,-1,0,1
399209023698,-5,-11,-10,-13,-1,-3,2,-2
399209031307,-2,-5,-17,1,3,1,0,-1
399209031307,-1,14,-1,-2,-11,-1,-5,-1
399209046296,-1,-4,9,2,0,-2,-2,-1
399209046296,1,-15,11,-5,9,0,4,-1
399209053840,0,-3,-22,4,-1,1,1,-3
399209053840,0,16,33,7,-7,0,-4,0
399209068879,-1,-3,-24,-9,-7,-2,-2,0
399209068879,-1,-13,-14,-12,11,-2,2,0
399209076980,1,3,8,-4,0,0,1,0
399209076980,-2,11,11,9,-4,1,-5,-1
399209083698,-2,-4,-17,8,-4,-3,-2,-2
399209083698,0,-20,4,-11,2,-2,3,-2
399209091283,2,3,2,0,-3,-2,-1,-2
399209091283,0,17,17,2,-10,-4,-5,1
399209106172,-3,-2,-5,4,7,4,-1,0
399209106172,-2,-16,-17,-2,10,2,1,-3
399209113842,0,1,15,-1,-3,-1,-3,-3
399209113842,-3,16,0,-5,-10,-1,-3,0
399209128698,-1,1,-1,-10,-9,-3,-4,1
399209128698,-1,-21,-1,9,5,-1,3,-3
399209136896,-3,-7,-27,-10,1,-2,-2,-3
399209136896,-1,26,8,16,-8,1,-9,1
399209144258,-1,1,5,-20,-7,0,-4,-3
399209144258,0,-32,-7,5,12,-1,6,0
399209159406,-1,-2,-4,-1,-3,2,-1,-1
399209159406,-2,25,-10,-1,-6,-2,-5,1
399209166408,0,-1,11,8,0,2,0,-2
399209166408,0,-29,-12,-2,3,-1,3,-2
399209173676,-1,2,37,13,8,-1,1,-3
399209173676,0,18,-37,-14,-11,-2,-4,1
399209188708,-3,-2,9,19,1,0,-2,0
399209188708,0,-27,13,-14,7,0,4,-3
399209196842,-3,-9,-23,-11,-1,-4,0,-1
399209196842,0,19,16,4,-8,0,-4,-1
399209203766,2,3,8,0,-6,-1,-3,3
399209203766,-2,-30,-32,-16,5,-2,2,-4
399209219481,0,-3,5,12,4,-1,3,0
399209219481,-1,19,1,-9,-7,1,-5,-1
399209226406,-1,5,-5,14,-6,0,-5,0
399209226406,0,-24,4,-25,3,-1,2,0
399209234002,-1,-1,-3,24,2,-2,1,-1
399209234002,-2,13,-6,8,-7,2,-2,-2
399209250183,0,0,-18,-17,-8,-4,-2,0
399209250183,-1,-22,21,3,8,-1,1,-2
399209256829,1,-4,5,-6,2,0,1,-2
399209256829,0,25,3,10,-7,-3,-4,2
399209271183,-2,3,18,7,-6,0,-2,0
399209271183,-1,-27,-22,5,2,-2,1,-1
399209279408,2,-2,10,-18,1,0,0,-2
399209279408,-3,24,-11,6,-5,-2,-3,-3
399209286354,0,4,-4,-6,-5,-3,-5,1
399209286354,0,-31,12,7,11,2,3,-3
399209301868,0,-3,4,-2,0,0,2,-1
399209301868,-1,29,13,3,-4,-2,-7,-1
399209308743,-2,4,-30,-12,-4,-1,-2,0
399209308743,-2,-28,0,1,5,0,3,-3
399209317051,0,-5,-14,-6,3,0,1,-2
399209317051,-2,30,0,2,-8,-3,-4,-2
399209325367,-1,3,20,0,-7,-2,-1,0
399209325367,3,-30,3,-3,9,2,5,0
399209339573,-2,-5,-12,-6,-5,-4,0,0
399209339573,0,40,22,5,4,1,-4,3
399209346403,0,4,5,7,-2,1,-3,-2
399209346403,-2,-27,-17,-1,2,-3,0,-5
399209354356,-1,-6,-26,-10,5,-1,0,-2
399209354356,0,34,14,4,-11,-1,-5,2
399209368681,-2,7,1,6,-4,-1,-5,-2
399209368681,-2,-37,-21,-10,7,-2,3,-1
399209376922,0,6,24,0,6,1,0,-1
399209376922,-2,32,0,-5,2,1,-8,1
399209383682,0,7,4,4,-7,-2,-2,0
399209383682,2,-33,-3,1,6,0,4,0
399209399406,-1,-7,-11,-12,-1,0,2,-1
399209399406,0,35,24,9,-8,-3,-4,0
399209406345,-2,7,-11,1,-3,0,-2,0
399209406345,1,-30,3,-5,5,-1,3,2
399209414457,0,-8,-5,-10,3,-2,1,-2
399209414457,-5,29,-1,5,-11,0,-3,-1
399209428746,-2,5,6,4,-5,1,-3,1
399209428746,-1,-27,-6,0,6,-2,4,-2
399209436868,-3,-5,-16,-9,7,2,0,-2
399209436868,0,25,-13,19,-13,-1,-3,-1
399209443841,-3,6,-14,-7,0,2,-4,1
399209443841,0,-23,-18,-14,10,2,4,-4
399209459498,0,-4,2,7,4,-1,1,-3
399209459498,-2,22,-3,1,-15,2,-4,2
399209466239,1,3,16,7,-6,-2,-3,0
399209466239,-2,-20,-9,2,18,0,2,-4
399209474548,1,-5,-40,-13,2,2,1,-2
399209474548,-3,25,20,1,-12,-3,-4,0
399209488793,1,5,7,-7,-8,-1,-1,-1
399209488793,-1,-21,41,15,5,1,3,-2
399209496958,-1,-4,-19,-2,3,-1,1,-2
399209496958,-1,19,14,-4,-7,-1,-4,2
399209511178,-2,5,-32,5,-7,-4,-4,0
399209511178,-1,-18,-1,-6,4,-1,4,-2
399209526813,0,-4,12,-3,6,1,3,-2
399209526813,-1,20,-7,0,-5,-1,-4,0
399209534973,0,5,11,11,-8,-2,-3,2
399209534973,0,-17,-19,-13,8,-2,3,-4
399209535785,-4,-4,-4,-2,0,-4,1,-3
399209535785,1,21,-5,-1,-9,-3,-6,2
399209548806,-2,5,15,1,-6,0,-4,0
399209548806,-1,-21,-2,-3,9,2,5,0
399209557629,-2,-5,24,5,5,-3,1,-3
399209557629,-1,14,9,-1,-10,-2,-6,-1
399209571179,-1,5,7,4,-9,-4,-7,0
399209571179,2,-14,-11,-6,3,3,5,0
399209580255,-2,-4,-8,-14,5,0,4,-4
399209580255,-2,17,11,5,-4,0,-7,2
399209602628,-2,4,9,0,-6,2,-3,4
399209602628,-1,-22,-14,-2,7,-1,4,-5
399209604142,1,-5,-2,1,10,1,4,-3
399209604142,-3,13,-1,-1,-8,-3,-4,0
399209608837,2,6,11,3,-4,-3,-4,1
399209608837,0,-12,3,-6,-1,-2,2,-1
399209617669,0,-2,-3,-4,10,-4,2,0
399209617669,0,9,-11,1,-8,-4,-7,0
399209631195,-3,3,21,8,-10,0,-3,1
399209631195,-1,-15,-28,-10,9,1,2,-2
399209647680,0,-5,7,12,4,-1,1,0
399209647680,-3,11,-13,-1,-8,-2,-2,1
399209653783,-2,4,14,3,-10,-2,-4,1
399209653783,2,-14,3,-2,4,-2,1,-1
399209662687,-2,-4,-8,-15,4,0,6,-3
399209662687,0,11,-32,1,-1,4,0,-1
399209668680,-1,6,15,-4,-12,-2,-7,0
399209668680,-1,-11,-31,-6,5,-2,2,-2
399209685200,-1,-7,2,1,10,2,3,-2
399209685200,0,6,7,2,-11,-3,-6,-1
399209691199,-2,6,-14,-2,-8,-1,-3,2
399209691199,1,-10,-3,-15,4,-2,1,-2
399209707683,0,-7,21,8,7,-4,2,-4
399209707683,0,8,-21,1,-5,-3,-3,-2
399209713847,1,6,17,12,-5,3,-2,2
399209713847,0,-8,-7,-1,6,1,3,-1
399209722656,-3,-8,-15,-13,-1,-3,4,-2
399209722656,-3,9,15,0,-4,0,-4,0
399209728738,2,6,-2,-10,-12,-3,-6,1
399209728738,0,-5,7,12,8,3,4,-1
399209737634,2,-9,-25,-5,8,2,4,-4
399209737634,-4,7,8,-10,-11,-2,-4,2
399209751832,-1,7,1,-4,-11,-1,-4,1
399209751832,-1,-5,5,14,7,2,2,-3
399209760141,-2,-7,5,-2,6,0,4,-1
399209760141,-1,6,-5,-8,-8,-4,-5,0
399209773753,-2,8,1,15,-6,0,-5,0
399209773753,0,-4,-1,-9,3,-1,2,-1
399209782690,-1,-7,-5,-7,9,-1,2,-3
399209782690,-4,6,21,6,-4,2,-4,1
399209788696,-2,7,-13,2,-7,-1,-5,0
399209788696,-1,-3,30,1,0,-6,1,-3
399209803874,0,-8,-3,-7,7,0,4,-3
399209803874,1,4,1,0,-5,1,-2,1
399209811323,-3,8,-1,10,-8,-2,-5,-1
399209811323,-2,-2,-6,-15,-2,-2,2,-4
399209820204,2,-6,1,-1,19,4,4,1
399209820204,-3,3,8,-2,-4,-2,-5,0
399209833813,-4,5,7,13,-13,-1,-6,0
399209833813,-1,-2,-15,-15,1,0,3,-1
399209842627,-1,-5,2,13,9,2,3,-3
399209842627,-2,3,5,-1,-9,-2,-5,-1
399209848797,-2,5,-8,-3,-8,1,-5,-1
399209848797,0,-2,-4,-4,3,-2,1,0
399209857656,3,-4,5,-5,5,2,6,-2
399209857656,-2,1,-13,-1,-7,-4,-5,0
399209871183,-2,5,9,7,-6,0,-5,0
399209871183,-2,-1,-12,1,5,0,0,0
399209880261,1,-4,5,-7,4,0,3,-2
399209880261,1,1,-1,7,-5,1,-1,0
399209893858,-2,4,-1,-3,-11,-3,-5,1
399209893858,0,0,-8,-5,8,3,1,-4
399209902620,2,-5,-9,-11,5,-5,0,-5
399209902620,-1,0,-3,-1,-6,-2,-2,0
399209908669,1,5,12,5,-9,-3,-5,3
399209908669,1,-1,-9,1,6,2,3,-1
399209917649,-2,-4,-12,-10,6,-3,0,-5
399209917649,-1,0,4,0,-6,0,-3,0
399209931139,0,4,-2,8,-14,-4,-4,1
399209931139,2,0,12,-7,12,7,6,1
399209940140,-3,-4,-18,-7,12,0,4,-6
399209940140,-1,1,18,9,-10,-6,-5,0
399209962492,-1,2,4,2,-8,1,-3,3
399209962492,0,0,-10,-3,-3,-2,0,-6
399209964403,0,-4,-3,-7,6,0,3,-3
399209964403,-4,-1,-2,2,-1,-2,-1,0
399209968693,-5,3,-7,-1,-15,-1,-7,-1
399209968693,1,0,22,3,10,0,-2,-1
399209977758,-2,-2,-13,-4,7,-1,2,-2
399209977758,-2,-2,-18,-3,-5,-3,-2,0
399209991239,-2,2,11,3,-8,-2,-5,1
399209991239,0,1,10,3,4,1,3,-2
399210007735,1,-3,-13,-2,4,-1,2,-4
399210007735,-1,-2,-3,-2,-7,-2,-3,-1
399210013665,-1,1,-1,-6,-4,-2,-5,1
399210013665,1,0,-6,1,5,-3,0,-1
399210022799,-1,-3,2,-3,0,-1,3,-3
399210022799,-1,-1,19,8,4,7,1,1
399210028621,-3,3,-31,-9,-8,-5,-4,0
399210028621,-1,-1,-7,-8,-2,0,2,-3
399210037747,2,-2,5,3,6,-2,1,-1
399210037747,-1,1,7,1,-5,-3,-4,0
399210051177,0,1,14,0,-17,-8,-6,1
399210051177,0,-1,1,-6,25,5,1,-3
399210060163,0,-2,-16,-2,-1,-3,3,-3
399210060163,-4,-1,-9,-6,-5,-2,-2,-1
399210082637,1,2,33,6,-3,-2,-2,3
399210082637,1,2,-25,-7,-11,-5,-2,-2
399210084184,0,-2,7,-7,6,2,3,3
399210084184,-2,-1,18,9,-1,-1,-3,-2
399210088754,0,2,-15,-11,-4,-3,-2,1
399210088754,-3,1,-3,3,-3,-1,3,-2
399210097614,0,-1,1,-4,8,1,0,-4
399210097614,1,-1,-5,-2,-6,-3,-2,-1
399210111339,-2,2,0,7,-1,-1,-5,-1
399210111339,0,1,3,-4,2,0,0,0
399210120227,-2,-1,0,4,1,-3,0,-2
399210120227,-2,1,-4,-6,-3,0,-1,0
399210134477,-2,1,1,6,-3,-1,-1,0
399210134477,0,0,-1,-1,1,-3,1,-2
399210141168,-2,0,-25,-18,-6,-1,0,-4
399210141168,1,0,16,8,6,3,-2,2
399210157619,1,1,-44,-15,-8,-2,0,2
399210157619,-1,1,17,3,-4,-3,-1,-1
399210159136,0,-1,-6,-9,4,0,0,-1
399210159136,-1,1,-7,5,-6,-4,-3,-1
399210171305,-2,2,28,6,-1,0,1,1
399210171305,1,-1,-3,6,2,-1,3,-1
399210180133,0,0,0,-10,3,-2,0,-1
399210180133,-2,2,-14,1,-3,-4,-3,1
399210195019,-4,1,11,5,-7,-1,-4,2
399210195019,0,0,9,9,6,0,0,-1
399210201197,-1,-1,1,-6,6,2,4,-3
399210201197,-3,2,2,6,-7,-2,-1,-2
399210208695,-4,1,-14,-5,-4,-1,-2,-2
399210208695,0,-1,-6,-3,-2,-1,0,-2
399210217655,1,0,18,6,8,3,2,-1
399210217655,-2,1,-5,-3,-3,-1,-2,-1
399210231168,-2,1,-3,0,-2,-3,-4,3
399210231168,-1,-1,0,-2,0,1,1,-1
399210240129,-1,0,1,9,3,1,0,-2
399210240129,0,2,-17,-15,-4,-4,-2,0
399210254335,-1,0,-7,3,2,3,0,1
399210254335,1,-2,-11,-10,-4,0,-1,-3
399210261308,0,0,6,4,1,1,2,-2
399210261308,0,2,-5,-4,0,-1,0,3
399210268777,0,0,-1,3,2,0,-1,2
399210268777,-1,-2,-4,-16,-6,-2,-4,-4
399210285193,2,0,2,27,17,5,0,-2
399210285193,-3,2,10,0,-10,-6,-4,-3
399210291163,-1,0,17,-1,-2,0,-1,-1
399210291163,1,-2,-9,0,-2,-1,0,-1
399210307648,0,0,-19,-18,-2,1,0,-1
399210307648,-3,3,16,7,2,-1,-1,-1
399210314475,-4,0,-6,-3,-3,-2,-2,1
399210314475,-1,-3,4,-1,1,-3,-1,0
399210321226,-2,5,3,2,-5,-4,0,-4
399210321226,-1,2,-8,-6,2,0,-4,0
399210337668,1,-3,-7,-5,-5,0,1,0
399210337668,-1,-2,-7,14,7,-1,0,-2
399210339159,2,5,4,-3,-5,-2,0,-2
399210339159,-1,3,-16,3,-3,-2,0,0
399210360048,-2,-4,-13,-7,2,1,-2,-1
399210360048,1,-4,2,0,1,-1,1,-1
399210361610,-1,5,10,3,-3,-2,-1,0
399210361610,-1,4,-3,-1,-4,-2,0,-1
399210374386,-2,-7,1,-3,-1,-2,-1,-2
399210374386,-2,-4,-23,0,5,1,0,-2
399210381167,0,6,-3,1,-6,-1,-2,-2
399210381167,0,4,22,-7,-2,2,1,1
399210397423,-2,-8,19,15,3,-3,-1,-2
399210397423,0,-3,-23,-11,0,0,-1,-1
399210403753,0,8,3,-7,-4,-4,-3,-1
399210403753,-2,3,-8,-2,-1,2,-1,2
399210420074,-2,-10,-6,-3,6,1,2,2
399210420074,-1,-3,11,1,-2,-1,0,-1
399210421685,0,10,14,3,-1,-1,-2,-1
399210421685,-2,3,-15,-3,-5,-3,-3,-5
399210435667,-1,-9,3,-6,-1,-3,2,0
399210435667,-3,-4,2,1,-1,-2,0,-2
399210441280,0,12,-3,1,1,-1,-2,-1
399210441280,0,4,6,-4,-1,-3,-2,1
399210457491,-1,-12,-16,-8,0,-1,2,1
399210457491,0,-3,35,11,-6,-1,1,-2
399210459117,1,13,13,17,9,2,-1,0
399210459117,-4,2,-44,-20,-5,-2,-2,-1
399210471252,1,-14,-10,-4,3,0,0,0
399210471252,0,-4,6,-3,-3,-1,1,-3
399210480139,-1,9,0,-3,-6,0,-2,-3
399210480139,2,4,14,8,0,-2,-2,3
399210494600,-1,-9,-18,-8,0,-3,0,3
399210494600,0,-4,8,-11,5,2,1,0
399210501253,-5,11,-7,-6,-8,-2,-2,-4
399210501253,0,4,13,2,1,2,0,0
399210517614,-2,-12,-3,-4,-3,-3,0,-2
399210517614,-1,-3,4,0,2,1,0,-1
399210519036,-1,10,-5,-4,-6,-2,-2,-4
399210519036,1,2,0,-1,-5,2,-2,2
399210531229,0,-8,-3,-3,2,-1,0,-1
399210531229,-1,-2,-2,0,1,1,0,-1
399210540139,-2,5,3,7,-5,-2,-3,-2
399210540139,-1,3,-4,3,0,1,0,0
399210554730,0,-9,-7,-6,6,0,1,-1
399210554730,0,-2,7,6,0,-2,-3,-2
399210563371,-2,9,-2,-4,-3,-1,-3,0
399210563371,-1,2,10,1,-2,0,-4,-4
399210577644,-2,-11,28,4,1,-2,0,1
399210577644,1,-2,-13,-3,-1,-1,0,0
399210579137,1,7,2,-5,-8,1,-3,-2
399210579137,0,1,25,5,2,0,1,0
399210591121,-3,-6,-34,-19,1,-3,1,-2
399210591121,-1,-2,16,18,1,-2,-1,-2
399210607645,0,6,-19,6,-3,-1,-4,0
399210607645,-3,2,4,-9,-4,0,-3,1
399210614366,-1,-6,-9,-5,0,-1,1,-1
399210614366,-2,-2,-13,-12,0,-2,0,-2
399210621202,-1,5,6,10,0,0,-1,-1
399210621202,-1,1,-3,1,-3,-1,1,0
399210637513,-2,-5,-5,0,2,-2,1,-3
399210637513,0,-1,-6,-4,-3,1,-1,-2
399210639118,0,4,9,-6,-5,-3,-4,-3
399210639118,-3,0,-10,4,-1,-1,-3,-2
399210651297,0,-6,-1,-3,5,0,2,1
399210651297,-2,-1,7,5,-1,-2,-3,-1
399210660124,1,3,27,-2,-3,1,-1,1
399210660124,-4,0,-51,-3,-5,-3,0,-1
399210674359,1,-7,0,2,2,-1,0,-1
399210674359,0,-1,0,-3,11,4,1,1
399210681266,-1,11,4,-3,-5,2,-2,1
399210681266,-1,1,19,7,-1,-2,0,-1
399210697625,-4,-16,9,6,3,-1,0,-4
399210697625,-2,-1,-5,-3,-1,-3,-1,0
399210699101,1,18,-18,-1,-7,-2,-5,1
399210699101,0,0,15,-4,-1,0,-1,2
399210711200,-1,-19,-3,-4,5,1,2,-1
399210711200,0,-2,0,-2,-2,-1,-1,-1
399210720139,-1,16,-2,2,-6,-3,-3,-2
399210720139,0,2,-5,-4,-5,-2,-3,0
399210735802,0,-19,-2,2,6,0,4,-1
399210735802,-1,-1,11,0,0,-1,-1,-2
399210741205,0,16,-34,-5,-6,-1,-4,0
399210741205,0,1,-2,1,-2,-1,-1,-2
399210757286,0,-25,-4,-6,5,-1,2,-2
399210757286,-1,-2,2,-2,2,2,5,-1
399210763638,-1,31,1,2,-9,-1,-3,0
399210763638,-3,1,0,3,-3,-1,-3,0
399210771202,-1,-31,-7,-6,7,-2,6,0
399210771202,1,-1,-10,-3,2,-3,0,-1
399210780149,0,25,18,6,-6,-1,-4,-1
399210780149,-2,1,-22,1,-1,0,-1,0
399210794363,-1,-19,-1,-5,3,0,0,-3
399210794363,1,-2,-7,-5,-3,-2,0,-2
399210808685,-3,22,7,4,-3,0,-4,0
399210808685,1,1,7,2,-4,0,-4,-1
399210817457,1,-22,-5,-5,3,-1,3,-2
399210817457,0,-1,-9,-2,0,-2,0,-2
399210819054,-1,25,3,3,-5,-2,-4,1
399210819054,1,0,3,0,-5,-2,0,0
399210831196,2,-20,-3,-1,4,-1,4,-2
399210831196,-2,0,-3,-3,1,-3,-1,1
399210840205,-1,20,8,-2,-4,1,-2,0
399210840205,-1,-1,2,3,-3,1,-3,2
399210853729,-1,-21,-22,-1,7,-1,2,-3
399210853729,-1,0,-24,-4,1,-1,0,-1
399210862641,-1,20,7,6,-5,-1,-2,-1
399210862641,0,0,1,-1,-6,-1,-4,-3
399210877661,-1,-18,1,-2,5,3,2,0
399210877661,0,3,0,-3,1,0,1,-2
399210879229,-1,22,-7,1,-6,-1,-6,-1
399210879229,-1,0,2,3,-1,1,-1,-1
399210891285,-2,-18,-1,-3,5,0,2,-2
399210891285,-1,3,4,-4,-3,-1,2,-1
399210900134,3,11,27,3,2,-1,-1,1
399210900134,-3,-3,-30,-1,4,-1,-4,1
399210913754,-2,-11,2,-1,3,0,1,-3
399210913754,2,5,-5,-1,0,-3,0,-1
399210922720,-2,20,10,0,-13,-4,-4,-2
399210922720,0,0,8,-1,-4,1,-3,1
399210937534,1,-13,10,-1,4,1,1,1
399210937534,0,0,-36,-2,5,-2,0,-3
399210939002,0,10,-3,-4,-8,-2,-4,0
399210939002,0,-3,-2,5,-3,-2,-1,-2
399210951216,0,-11,5,-10,0,0,4,-2
399210951216,-3,0,2,0,1,-1,0,-2
399210960077,-1,6,-2,1,-2,3,0,0
399210960077,-4,-4,1,-3,-6,-7,-6,-4
399210973833,-1,-7,-1,-2,4,-3,2,0
399210973833,-1,0,4,-1,4,0,4,-3
399210982625,0,3,-8,3,-6,-1,-5,0
399210982625,2,-6,16,6,-7,0,-3,1
399210997568,-1,-13,6,-14,-2,-4,-1,-1
399210997568,-3,4,-5,10,23,4,2,-2
399210999190,-2,12,0,4,-8,-2,-3,-1
399210999190,2,-9,-5,1,-7,-2,-2,1
399211011072,0,-15,2,-6,2,-1,1,-1
399211011072,-1,0,19,0,-3,-1,0,0
399211020126,-3,3,-23,-4,-7,-3,-3,0
399211020126,0,-11,11,-1,-7,0,-3,-1
399211033716,-1,-14,-12,-2,7,2,4,-2
399211033716,-1,1,-1,-8,1,-1,1,-1
399211042633,0,4,2,8,-1,1,-4,1
399211042633,-2,-10,3,-4,-7,0,-3,-1
399211056807,-3,-20,-18,-3,4,-4,1,-4
399211056807,-1,4,1,-2,3,0,1,-2
399211063790,0,9,12,-1,-4,1,-2,1
399211063790,-1,-6,5,2,-6,-3,-4,0
399211071250,-1,-25,-10,-4,10,2,4,-2
399211071250,-1,-2,-3,-6,-1,-1,1,-2
399211080167,-2,12,0,-2,-11,-4,-5,0
399211080167,0,-2,-1,5,-9,-1,-2,0
399211094533,0,-20,-8,-12,5,1,3,-2
399211094533,0,2,5,3,3,-3,-1,-2
399211101295,-2,20,3,-2,-6,0,-4,0
399211101295,-3,0,0,7,-1,1,-4,0
399211116928,0,-9,20,2,-3,-2,1,-2
399211116928,-1,-7,-44,-14,1,1,1,-3
399211123824,0,20,13,5,-4,-2,-4,0
399211123824,0,6,8,0,-4,1,1,1
399211131116,-1,-15,-9,-3,4,-1,1,-1
399211131116,-2,-4,8,-4,5,-1,0,-2
399211140096,-2,13,3,10,-4,1,-3,2
399211140096,-1,3,-6,-3,-7,1,-5,0
399211154330,-2,-21,-7,2,9,0,4,-2
399211154330,-2,-4,5,-4,2,-1,1,-3
399211161221,-1,13,-7,-8,-11,-4,-5,-2
399211161221,0,5,10,15,-1,0,-5,1
399211176958,0,-18,-18,-7,9,-1,2,0
399211176958,-1,-4,0,-3,0,-2,2,-1
399211183764,-2,28,-2,1,-6,-2,-2,1
399211183764,-3,3,7,-5,-5,-1,-1,1
399211191341,1,-19,-9,-2,6,-1,3,0
399211191341,0,-1,-3,-9,0,-1,1,-1
399211200123,0,23,6,7,-3,0,-4,-1
399211200123,-1,4,-1,1,-8,-1,-3,2
399211214446,-3,-16,-7,-1,5,-1,2,-4
399211214446,1,-4,7,-5,4,-2,0,-3
399211221319,0,12,2,2,-8,-2,-6,-1
399211221319,-1,2,12,1,-5,-1,-3,1
399211236890,-1,-13,-4,1,6,0,2,-1
399211236890,-3,-5,-18,-10,4,1,3,-2
399211243632,-3,19,-8,7,-8,-5,-7,0
399211243632,-2,0,20,2,-6,1,-6,1
399211259950,2,-17,-10,-7,9,0,7,-2
399211259950,-3,-3,6,-8,6,1,3,-3
399211261598,-2,11,-2,1,-6,-2,-6,0
399211261598,2,5,-4,0,-12,-3,-4,3
399211274341,7,10,6,9,12,-4,-1,-3
399211274341,-9,-6,-8,-19,-3,3,4,-7
399211281102,-5,20,6,-8,-15,-2,-3,2
399211281102,-2,4,-6,3,-5,0,-4,1
399211296952,0,-10,-3,-8,8,1,3,-2
399211296952,5,-4,16,5,15,-1,4,0
399211303733,-1,6,-6,3,-7,0,-5,-1
399211303733,-2,1,-6,13,-10,-2,-6,0
399211320101,0,-27,-6,-13,3,0,2,-1
399211320101,-1,0,-3,1,3,-4,1,-3
399211321580,-1,3,10,-3,-6,1,-1,1
399211321580,1,1,-7,-2,-9,-2,-5,-2
399211333836,-1,-14,2,0,4,0,5,-1
399211333836,0,-1,-8,0,8,0,2,-1
399211342595,0,3,0,-3,-7,-1,-5,2
399211342595,-6,-8,3,-4,-8,-1,-3,2
399211357017,-3,-15,1,-3,5,1,3,-3
399211357017,-1,-1,-4,-7,8,-2,2,-5
399211363780,-3,9,5,4,-8,-1,-4,-1
399211363780,-2,-1,11,3,-13,-1,-5,1
399211380302,0,-10,7,2,11,3,4,-2
399211380302,-1,-7,-13,-6,5,-2,3,-3
399211381612,0,-1,-7,0,-6,-2,-4,0
399211381612,0,4,7,15,-10,-4,-4,0
399211393753,-4,-19,-18,-5,-2,-4,-2,-4
399211393753,2,-5,-7,-7,12,1,3,-3
399211402620,0,4,3,0,-5,-3,-1,0
399211402620,-3,3,-6,-2,-9,0,-4,2
399211416909,2,-2,-3,7,2,1,2,-1
399211416909,1,-5,-3,-2,9,0,4,-1
399211423673,-1,-3,6,1,-9,-1,-3,1
399211423673,-1,1,13,2,-7,0,-4,1
399211440090,-3,-16,-31,-16,2,-2,2,-3
399211440090,1,-4,-1,13,10,-1,7,1
399211441599,-1,9,14,3,-5,-1,-4,-1
399211441599,-2,1,-3,-1,-11,0,-6,0
399211453760,-1,-6,1,-7,4,-2,2,-3
399211453760,1,-6,-7,-8,12,-1,2,-2
399211462680,0,8,3,6,-3,0,-4,1
399211462680,1,5,0,4,-9,-2,-4,3
399211476910,1,-2,7,-1,3,-3,1,-1
399211476910,0,-7,-8,-5,9,1,6,-2
399211483678,-2,7,1,5,-6,-1,-4,0
399211483678,-3,6,1,-8,-13,-2,-6,1
399211499967,1,-10,2,-3,5,0,0,-3
399211499967,2,-9,-3,2,8,1,4,-1
399211501673,-2,3,-9,0,-3,-1,-2,1
399211501673,-2,10,-8,1,-12,-2,-3,-1
399211513779,0,-3,7,5,6,-1,3,-2
399211513779,-1,-9,-15,-8,6,-1,1,-3
399211522609,-4,4,0,0,-8,-1,-3,0
399211522609,0,4,-2,1,-9,-2,-5,1
399211537090,0,-11,2,-3,2,1,4,-1
399211537090,0,-9,0,-6,13,1,5,-6
399211543618,-1,3,8,14,-4,-3,-3,0
399211543618,1,7,-5,0,-12,-4,-5,1
399211559939,-1,-15,1,-5,5,0,2,-3
399211559939,-1,-7,-9,-14,-3,-2,5,-3
399211561550,-3,5,0,11,17,2,-6,3
399211561550,-2,6,8,-4,-16,-1,-7,0
399211573668,-1,-13,-9,-1,6,-1,4,-2
399211573668,-1,-9,4,-3,5,-4,1,-3
399211582624,-2,8,6,-3,-15,-2,-2,-2
399211582624,-3,5,11,7,-8,1,-4,3
399211596778,0,-10,-6,-5,7,4,2,-1
399211596778,-2,-7,-4,-5,5,1,4,-3
399211603596,-1,3,-7,-5,-10,-3,-3,1
399211603596,-2,2,0,0,-10,-1,-7,2
399211619993,1,-7,-4,-6,3,1,4,-4
399211619993,-1,-4,0,1,11,2,4,-4
399211621912,-3,-1,4,-3,-17,-6,-5,0
399211621912,0,1,11,9,13,3,-2,3
399211633998,-3,-10,-16,-8,-9,-1,0,-3
399211633998,0,-6,0,24,22,2,4,-2
399211642594,-1,5,-8,-9,-10,-3,-3,0
399211642594,-1,3,-2,-4,-14,-3,-2,-1
399211656820,2,-7,16,-2,1,0,4,1
399211656820,0,-4,-38,-13,4,-1,2,-4
399211663741,-2,4,23,6,-4,1,-2,0
399211663741,-1,1,18,1,-11,-3,-6,4
399211680110,-2,-6,-9,1,9,-2,0,-2
399211680110,3,-4,13,-7,1,1,4,-2
399211681658,-4,-1,-9,-3,4,-1,-3,0
399211681658,-3,3,-12,-3,-9,-2,-6,-1
399211693796,1,0,12,0,4,2,1,0
399211693796,-1,-3,-1,-4,5,1,2,-2
399211702726,-3,-2,-6,-12,-18,-4,-5,1
399211702726,-2,0,7,11,5,1,-1,4
399211716865,0,-7,-10,-2,7,2,3,-2
399211716865,0,-3,8,0,2,-5,-1,-4
399211723700,0,-1,-7,0,-4,2,-2,-2
399211723700,-3,-1,-1,-1,-11,-1,-3,2
399211739919,0,4,-5,0,5,-1,-1,-1
399211739919,1,-2,-6,-4,6,-1,3,-2
399211741536,-2,13,1,-4,-4,-3,-3,3
399211741536,-1,4,5,1,-7,-3,0,0
399211753729,0,0,-9,-2,-3,-2,1,-4
399211753729,0,-4,-6,6,10,1,3,-1
399211762549,-2,-15,-15,-5,1,-1,-5,-1
399211762549,-2,-1,23,8,-7,-2,-1,1
399211776850,0,-3,-6,-6,0,-2,0,-4
399211776850,-1,-5,-2,1,-6,-2,0,-1
399211783599,2,-13,-5,5,3,2,2,3
399211783599,-3,1,1,-8,-3,-1,-2,-1
399211799961,-1,-6,3,3,4,0,2,-1
399211799961,-1,-2,0,-3,2,-1,1,-4
399211801609,0,11,4,-1,-3,1,-3,0
399211801609,-1,1,-8,-1,-7,0,-4,1
399211813757,0,-3,-3,-5,2,-4,2,-3
399211813757,1,-5,3,5,7,2,2,-3
399211822575,-2,-1,1,-5,-9,-1,-2,-1
399211822575,-3,2,-4,-5,-1,0,-5,-2
399211836971,0,1,-3,2,4,1,1,2
399211836971,0,-4,7,-4,-1,-2,1,-3
399211843737,0,-8,-3,-2,-5,-5,-1,-2
399211843737,0,1,-14,3,-8,-4,-6,1
399211859948,0,-2,21,6,1,3,2,-1
399211859948,-1,-3,-34,-22,1,0,3,-3
399211861537,-2,7,11,8,1,0,-1,2
399211861537,-2,1,-16,-6,-6,-3,-1,0
399211873805,3,10,3,-4,0,0,0,-1
399211873805,3,2,28,-2,2,0,-1,-2
399211882564,-3,-18,5,21,1,-2,-2,-1
399211882564,-2,-3,-13,-7,-11,-2,-1,3
399211896796,-3,-1,-4,-9,5,-1,1,-2
399211896796,0,0,2,-2,2,2,1,-2
399211903606,-2,0,-7,-5,-2,-2,-1,-1
399211903606,-1,2,8,0,-6,-2,-3,0
399211920097,-1,-5,-3,4,-1,-1,0,-1
399211920097,0,-6,-3,-2,2,-1,1,0
399211921568,-2,2,-2,0,-2,-2,-2,1
399211921568,-5,-4,-6,-6,-3,1,-2,-2
399211933706,0,1,6,5,1,1,-1,-3
399211933706,-2,-6,-3,1,3,-1,-1,-3
399211942592,1,2,10,-1,-1,-2,0,0
399211942592,-2,5,-8,1,-3,0,1,1
399211956905,0,-10,-11,-6,-8,-4,-3,-3
399211956905,-1,-4,6,18,18,6,1,1
399211963723,0,-6,-4,-8,-5,0,-2,-2
399211963723,1,-2,4,-3,-9,-3,-2,1
399211979907,-2,-1,-2,12,15,1,2,-2
399211979907,0,-7,-2,-3,-3,-1,0,-2
399211981542,-2,-2,30,1,-6,-3,-1,-1
399211981542,1,0,5,-1,-3,-1,-2,3
399211993590,-1,-5,0,2,0,1,1,-1
399211993590,1,3,3,-14,-3,-1,-2,0
399212002576,-3,-1,-17,4,2,2,0,1
399212002576,-3,-7,2,0,0,-4,-1,0
399212016942,-1,7,4,4,-2,-2,0,-2
399212016942,-1,-2,1,3,2,-1,-1,-4
399212023793,0,1,-4,-5,-4,-4,-3,-2
399212023793,-2,-3,1,1,1,1,-1,2
399212039487,1,-5,-8,-4,1,-3,-1,-2
399212039487,-2,0,1,-2,-4,-2,-1,-2
399212046226,-1,0,-9,-4,-3,0,-1,1
399212046226,-3,-2,0,-7,-4,-2,-1,-1
399212053743,0,-7,2,1,-1,1,0,0
399212053743,1,0,-2,-7,-2,-3,-1,-2
399212062568,0,-11,-6,22,6,1,0,0
399212062568,-3,-9,-3,-16,0,-1,-2,-2
399212076840,-1,-7,-15,11,-11,0,-1,-2
399212076840,0,4,12,10,2,0,-2,-4
399212083595,-1,-8,-13,-18,-4,-1,-3,1
399212083595,2,-8,2,0,7,1,2,0
399212099429,-1,-4,-4,1,-3,-1,-1,-2
399212099429,-1,0,-12,4,-2,-3,-1,-3
399212106134,-1,8,5,1,-4,-2,0,2
399212106134,-1,-3,-13,4,0,-1,1,-1
399212113671,1,-6,2,-14,3,1,-1,1
399212113671,0,0,-21,0,-3,1,-1,0
399212122628,-6,8,57,3,-2,-1,0,-8
399212122628,5,-3,-2,6,2,-2,0,15
399212136905,-2,1,22,0,4,1,1,-15
399212136905,-1,1,-9,1,-6,-1,-3,-1
399212143611,2,0,7,-3,-7,-3,-1,4
399212143611,-2,-5,-39,-9,4,2,2,-4
399212159448,-4,-7,63,-7,3,1,0,4
399212159448,-4,8,63,22,-7,-3,-3,8
399212166229,2,-5,-15,-10,-7,-3,-6,-26
399212166229,-6,-7,1,0,1,-2,1,6
399212173758,1,-4,-24,-16,-11,-1,0,4
399212173758,0,0,-14,17,18,5,-2,-6
399212182629,-3,8,-24,-9,-5,-1,-3,5
399212182629,-4,-6,28,9,1,-4,1,-7
399212196823,4,0,-20,-22,-6,-5,4,3
399212196823,-3,1,-13,-7,-13,-4,-17,-5
399212211038,0,-3,1,2,-1,0,15,0
399212211038,-4,-10,-13,7,13,2,5,-15
399212219172,-1,6,-15,-6,2,-4,-26,-1
399212219172,2,-3,3,-10,-11,-2,-9,-2
399212227606,-1,-6,-4,3,1,-1,-5,10
399212227606,0,-6,-10,-7,-5,-2,1,-4
399212242607,-3,8,-7,-14,-30,-4,21,18
399212242607,2,-7,15,46,27,13,16,-34
399212244030,-5,-3,-14,-3,-5,-3,-42,-3
399212244030,0,-5,8,-1,2,-2,-2,4
399212256772,-1,-2,-7,-1,1,-1,-5,-3
399212256772,-1,8,-13,-23,-29,-3,22,22
399212263655,3,7,-4,7,-17,1,40,15
399212263655,-7,-9,-7,-27,10,-1,-9,-40
399212279135,4,-4,-1,13,16,4,-20,11
399212279135,8,4,2,-57,-67,-4,47,10
399212287544,7,12,-1,-21,31,15,-9,38
399212287544,-30,-27,-10,-1,39,-14,-43,-70
399212302453,-19,20,-3,-19,-2,-8,28,46
399212302453,2,4,-3,-38,-8,5,21,-16
399212303991,-12,-20,-3,15,-36,-27,-65,-16
399212303991,-2,2,2,14,8,-4,-2,32
399212316912,9,-5,-8,11,28,5,-1,-21
399212316912,-8,8,-1,-1,-7,3,8,24
399212323724,1,9,2,1,-3,13,56,-5
399212323724,2,-2,-5,6,1,3,-5,3
399212339382,-2,-11,2,16,5,-1,-2,-24
399212339382,5,7,3,-4,4,1,-1,13
399212346176,-3,-10,-4,3,11,1,-11,-22
399212346176,6,-5,4,5,-6,-1,-3,9
399212362551,4,-3,-3,-18,-24,-5,4,7
399212362551,-2,5,3,20,11,0,-21,-13
399212364013,-2,-2,18,0,10,-3,-13,-8
399212364013,4,-5,-9,-15,-17,-1,18,28
399212376888,3,-10,-9,5,4,3,5,-20
399212376888,-9,0,-68,-12,10,-9,-38,-14
399212383708,-7,5,35,30,3,-4,3,-8
399212383708,11,4,48,-29,-17,2,26,29
399212399444,-2,-9,13,18,12,7,-8,-19
399212399444,4,2,2,24,6,-13,-25,-15
399212406152,5,-8,-13,-45,-16,5,12,35
399212406152,-8,0,6,13,-1,-1,13,-12
399212422551,14,7,-34,32,10,-1,-17,18
399212422551,16,5,34,-23,-9,6,-9,-61
399212424075,-5,7,-14,-1,-2,-3,23,-12
399212424075,17,-18,-53,4,3,0,-6,43
399212436246,-39,-11,-3,-41,-7,-2,1,-31
399212436246,-5,14,27,35,2,-2,-9,22
399212445080,1,-3,19,7,-3,-2,-10,-3
399212445080,0,-13,2,-14,6,2,4,-14
399212459336,5,2,-11,3,-10,-3,4,19
399212459336,-7,10,3,5,7,0,-6,3
399212466067,-3,-8,-5,-7,-3,-2,-8,-9
399212466067,-5,-6,-1,-7,-9,-1,3,12
399212482588,6,2,10,20,6,1,1,-16
399212482588,-4,13,-6,-18,-8,-4,-9,9
399212484042,4,-9,-16,-20,-9,-3,-3,1
399212484042,2,-11,-4,5,-13,-3,13,-7
399212496221,8,13,-2,-24,19,20,56,9
399212496221,-11,-4,2,6,-4,0,-29,-60
399212505200,30,-11,-11,-51,-29,-6,-3,30
399212505200,0,-25,-14,28,35,-16,-18,-4
399212519344,-43,-14,12,-32,-46,-29,-77,-14
399212519344,0,24,3,-19,12,15,31,50
399212526109,-9,11,-6,-53,-29,3,5,-23
399212526109,17,-17,8,18,39,-7,-5,-4
399212542512,3,9,18,-7,-15,-4,25,15
399212542512,-9,1,-25,0,-9,-4,-7,4
399212544037,-6,8,1,3,-44,-2,-18,-13
399212544037,-2,-5,29,-21,-1,16,30,1
399212556152,2,-2,9,16,21,2,3,-7
399212556152,8,9,-21,8,-17,-3,-12,7
399212565125,-3,3,-6,36,39,6,8,1
399212565125,-10,-12,6,-13,-11,-2,8,-5
399212579269,12,-5,-9,12,20,2,-1,-6
399212579269,-6,22,8,6,-6,-6,-12,1
399212587185,0,32,54,33,15,-1,4,8
399212587185,-6,-21,-53,-18,-4,-2,-8,-7
399212602558,3,-28,-19,-12,-18,-5,-9,-7
399212602558,4,5,11,9,7,4,13,13
399212604054,-7,-6,47,26,7,-3,-6,-2
399212604054,0,-21,-32,-10,-8,5,0,-7
399212624952,9,-7,-8,1,16,6,10,-6
399212624952,-4,8,20,5,-15,-8,-5,24
399212626531,-5,-4,-15,7,6,-3,-5,-3
399212626531,-2,-14,-23,-12,-4,2,0,-3
399212639400,1,-2,1,10,6,1,7,3
399212639400,4,14,1,2,-1,-3,-6,-25
399212646053,-12,-1,-31,8,-10,-6,-6,45
399212646053,2,-13,23,-7,6,5,0,-45
399212662618,2,-6,-40,-10,6,-1,1,13
399212662618,-3,16,72,12,-6,-2,-4,-6
399212664211,5,-2,-7,4,2,2,6,31
399212664211,-17,-15,9,-1,0,-2,3,-5
399212676177,0,0,-9,-5,6,-1,-2,-10
399212676177,-5,12,-8,6,-6,2,-4,6
399212685065,-3,-10,-20,-2,-3,-1,-3,-17
399212685065,0,-15,8,1,3,1,5,12
399212699264,7,-2,3,-7,-3,-4,-3,-16
399212699264,-4,7,-34,-4,-6,-2,4,17
399212706041,0,-4,14,9,-1,0,-2,-20
399212706041,4,-20,-8,-10,3,-3,2,4
399212722384,-2,2,16,5,6,3,5,-6
399212722384,1,12,4,-4,-8,-1,-4,1
399212723997,-5,-8,-21,-3,-5,-2,-5,-12
399212723997,1,-20,15,1,8,4,0,-5
399212736068,-1,-4,-27,-6,3,1,3,1
399212736068,-3,15,-5,1,-8,-1,-2,3
399212745031,1,-5,-16,-3,-8,-1,-6,-12
399212745031,-4,-27,-12,-10,6,-4,5,1
399212759209,1,3,17,1,2,0,0,1
399212759209,2,15,6,8,-7,1,-5,-2
399212766062,-3,-8,-17,-4,-5,-2,-4,5
399212766062,4,-13,5,-2,6,1,4,3
399212782355,-7,1,-2,-10,2,-1,-2,-5
399212782355,-1,13,-8,9,-10,-2,-4,-1
399212784011,0,-8,15,1,0,0,1,0
399212784011,1,-16,-7,1,6,0,2,3
399212796038,-1,3,-4,-11,0,0,1,-7
399212796038,0,19,8,6,-10,0,-4,7
399212805085,0,-1,-13,-5,-1,-1,-3,-5
399212805085,-2,-21,1,1,4,-1,2,-8
399212827411,2,1,0,0,3,-3,0,8
399212827411,0,10,13,-4,-8,-3,-4,-1
399212829014,2,-1,12,5,-4,-2,-4,-1
399212829014,-1,-20,-22,-13,4,-4,2,-3
399212842360,0,-1,-17,1,4,1,1,0
399212842360,-1,12,-3,3,-8,-2,-4,3
399212844028,-1,4,11,8,-6,-1,-6,-6
399212844028,0,-20,-17,-8,7,1,4,7
399212856034,0,-5,7,-1,2,0,-1,-4
399212856034,-2,13,15,2,-7,-1,-4,0
399212865002,1,6,-17,3,-5,0,-2,0
399212865002,1,-18,-3,2,11,-3,5,-2
399212879245,-1,-5,-7,-4,1,-2,0,-1
399212879245,-2,11,-1,-4,-7,-1,-5,-2
399212886872,-1,3,13,2,-7,-2,-3,1
399212886872,1,-17,-4,3,7,2,3,0
399212909860,-3,-9,9,-4,1,-3,-2,-7
399212909860,-2,14,19,0,-12,-3,-4,2
399212911509,-4,2,-15,-4,-7,-3,-3,-4
399212911509,1,-14,-4,-5,6,0,5,-1
399212916013,2,-8,3,1,6,-1,1,2
399212916013,-2,10,14,2,-6,-1,-3,0
399212925039,0,9,-28,-3,-2,2,-3,1
399212925039,-3,-17,3,-1,3,-2,2,-7
399212939213,-1,-10,-2,-4,1,-3,3,5
399212939213,2,9,15,3,-4,-1,-3,0
399212946085,-1,8,-6,2,-6,-2,-3,1
399212946085,2,-11,-15,-4,5,0,4,-3
399212961717,0,-13,-8,-2,7,2,1,-2
399212961717,0,8,-9,3,-6,0,-7,0
399212968601,0,8,10,2,-7,0,-1,3
399212968601,-2,-16,1,-10,4,-1,2,0
399212976070,-3,-13,7,5,5,-3,3,-4
399212976070,-1,10,-8,0,-8,-3,-5,-1
399212985036,-1,5,20,4,-7,-2,-5,0
399212985036,-3,-24,-48,-11,7,0,3,-1
399212999222,-1,-8,11,-2,5,0,1,-5
399212999222,-3,9,-6,-2,-8,-2,-5,1
399213006015,-3,5,9,6,-9,-2,-5,0
399213006015,1,-14,8,-3,4,2,2,1
399213021716,-2,-10,9,-1,6,-3,2,-6
399213021716,0,12,0,5,-5,-2,-3,1
399213028543,-1,2,-14,-2,-10,-2,-4,0
399213028543,2,-13,4,-1,9,1,4,-1
399213044164,1,-8,6,-2,7,3,5,-5
399213044164,0,5,-33,-4,-10,-5,-5,1
399213044956,0,3,9,4,-6,0,-2,3
399213044956,-1,-10,-1,-5,4,-2,1,-3
399213060022,-1,-7,1,-2,6,1,4,-2
399213060022,-2,4,-10,-4,-7,-1,-5,-2
399213066055,0,2,8,7,-8,2,-2,1
399213066055,1,-11,-4,-4,5,-2,2,0
399213082549,-1,-7,-11,-5,9,-2,3,0
399213082549,0,8,24,-1,-10,-1,-3,1
399213089378,-1,2,-5,1,2,2,-4,2
399213089378,-1,-7,23,7,5,-2,0,-4
399213104807,2,-5,-16,-3,5,-2,3,-3
399213104807,-2,9,1,0,-5,-1,-2,0
399213106430,-1,0,-7,-2,-11,-2,-8,1
399213106430,-2,-14,0,-3,3,0,2,0
399213120011,-1,-9,-4,-2,10,0,4,-4
399213120011,-2,2,-13,7,-2,-1,-2,0
399213126105,2,-3,18,-2,-11,-4,-6,1
399213126105,0,-15,-8,-5,6,-2,3,-2
399213141129,-2,-9,-11,-1,4,0,0,-3
399213141129,1,8,14,7,-2,2,-4,4
399213148680,-2,3,-12,-1,-7,-1,-1,1
399213148680,3,-14,8,-2,8,2,4,-3
399213164200,-2,-7,-23,-1,7,-4,3,-9
399213164200,-1,1,-3,-3,-5,-2,-3,1
399213164996,1,2,12,0,-8,-3,-9,-1
399213164996,0,-15,-9,-5,2,-1,2,-4
399213180017,-1,-10,4,-9,7,-1,3,-2
399213180017,-7,5,-4,2,-7,-1,-5,-2
399213186036,-3,2,22,5,-12,-3,-6,-1
399213186036,0,-8,-19,-4,2,0,2,-2
399213201122,0,-6,4,-3,4,-2,-1,-4
399213201122,-1,7,-7,-1,-8,-2,-5,-1
399213208738,-1,6,11,11,-8,0,-4,2
399213208738,-1,-6,0,-3,0,-2,0,-6
399213224300,0,-4,-29,-7,8,3,3,-3
399213224300,-1,17,70,17,-7,-2,-2,1
399213225156,-4,8,-20,-1,-15,-3,-6,-1
399213225156,1,-4,-5,2,2,1,1,-2
399213240058,-1,-3,-9,-4,4,0,1,-2
399213240058,-1,10,-11,-7,-9,-2,-6,0
399213246196,-3,11,14,6,-10,-1,-6,0
399213246196,-1,-3,2,1,3,-2,-2,-2
399213261092,0,-4,4,-8,2,-4,1,-1
399213261092,-1,12,-10,0,-7,0,-4,0
399213268623,-1,10,5,3,-10,-1,-4,3
399213268623,-1,-9,-8,-1,5,0,2,-1
399213284315,0,-11,-7,-6,6,-1,2,-2
399213284315,0,5,-8,-7,-7,-2,-7,1
399213285138,0,11,4,10,-11,-2,-4,1
399213285138,-1,-9,-7,-4,4,0,1,-3
399213300065,-2,-10,3,-6,7,2,6,-3
399213300065,-3,-2,10,0,-9,-6,-4,-1
399213306194,-1,10,-8,0,-8,0,-4,2
399213306194,3,-8,1,-5,5,0,0,0
399213321191,-1,-10,-13,-5,4,-1,2,-2
399213321191,1,4,7,-2,-7,-1,-3,1
399213328648,-2,7,-5,1,-5,-2,-3,-3
399213328648,-3,-2,-1,-2,0,-4,-1,-3
399213344221,1,-9,7,-3,9,0,0,-4
399213344221,-4,2,-15,-3,-4,-1,-4,-1
399213344990,-1,6,9,3,-6,-1,-3,2
399213344990,1,-5,-3,-2,8,0,4,-2
399213360058,-1,-9,0,-4,6,-2,2,-3
399213360058,-2,0,-6,3,-3,0,-3,2
399213366109,-2,5,5,-3,-11,-4,-5,2
399213366109,0,-7,-6,-4,4,2,4,-3
399213381060,0,-8,11,6,6,-1,1,-3
399213381060,1,1,-5,3,-6,-1,-2,0
399213388746,-2,4,-17,-2,-8,-1,-4,0
399213388746,1,-9,9,2,7,-1,1,1
399213404219,1,-9,-5,-6,5,1,5,-3
399213404219,0,-5,-5,0,4,1,-1,1
399213404952,0,3,10,-1,-5,-1,-4,0
399213404952,0,-12,-6,-3,7,-1,0,-4
399213420122,1,-8,-12,-2,6,-1,3,-3
399213420122,-1,-5,2,-1,-3,0,1,0
399213426171,-1,-1,2,0,-6,-1,-3,0
399213426171,0,-10,-1,-2,3,-1,2,-2
399213441106,1,-7,4,-3,6,-2,0,-1
399213441106,-2,1,-2,-2,-6,-2,-2,-2
399213448503,-1,-1,-7,0,-3,2,-2,1
399213448503,0,-5,3,0,0,2,1,-2
399213464328,0,-5,2,1,5,-2,1,-2
399213464328,-2,0,2,-4,-4,0,-1,0
399213464966,-2,-2,9,-3,-7,-4,-5,2
399213464966,-2,-9,-14,5,3,-2,-1,-3
399213489643,0,-6,12,4,3,-7,-3,-6
399213489643,2,-1,2,-1,0,19,14,4
399213490414,-2,0,-7,-2,-7,-3,-3,2
399213490414,0,-2,3,-8,-2,-3,-9,0
399213501166,-4,-6,-24,9,5,-18,-9,-5
399213501166,-1,-5,2,5,-5,10,16,3
399213508720,0,0,2,3,-3,-19,-10,-4
399213508720,5,-5,4,-9,6,51,25,18
399213524312,-1,-5,-12,4,10,-4,-3,-6
399213524312,-4,-3,22,-1,-15,-10,-9,-3
399213524992,1,-2,-5,-5,0,-2,-3,2
399213524992,3,1,6,11,-2,-28,-21,-8
399213540005,-2,-2,7,9,7,14,20,-1
399213540005,3,3,2,-7,-5,17,13,6
399213546181,-3,-3,-18,-9,-5,-2,-6,-1
399213546181,2,-6,-19,-4,1,-6,-1,-6
399213561099,1,-3,52,32,0,2,-33,-7
399213561099,-2,-14,-109,-45,2,-38,-9,-3
399213568626,-1,0,-17,23,3,18,17,2
399213568626,-6,-23,-43,-24,-15,4,9,-5
399213584293,4,-4,-8,-45,-14,31,31,13
399213584293,0,0,-85,5,1,-3,-21,-4
399213585093,-7,6,60,-6,-6,-16,-15,-3
399213585093,-6,14,13,11,2,-16,-5,-5
399213600160,17,-10,-87,-34,-6,-11,-4,16
399213600160,-8,21,88,42,13,19,6,-25
399213615000,2,1,6,-37,-12,5,-1,7
399213615000,4,-2,26,30,8,-11,-4,1
399213621030,-13,2,1,-30,2,3,6,-10
399213621030,-4,-29,-47,-7,-12,-8,-10,3
399213628520,-1,-2,-7,2,-3,1,4,2
399213628520,-5,1,16,-3,18,5,2,-3
399213644227,1,0,30,-8,-4,-26,-12,-5
399213644227,0,8,49,1,-1,0,-3,6
399213645041,0,-6,-3,21,-11,3,-3,-4
399213645041,11,-3,6,-27,-1,10,27,22
399213660086,0,-2,15,20,14,7,11,0
399213660086,-1,-18,37,8,-6,-37,-64,-5
399213666152,0,-5,-24,-23,-20,9,20,7
399213666152,6,-11,2,-1,13,-5,4,0
399213681150,-12,4,-77,-36,-5,13,17,-17
399213681150,15,22,87,-3,-13,-4,-5,1
399213688741,3,10,55,59,29,10,5,10
399213688741,1,-36,0,-16,-10,-8,-10,-9
399213705379,-4,-21,-7,1,4,-9,-11,-1
399213705379,-7,41,-50,-81,8,6,17,1
399213711866,-8,17,0,21,-21,-14,-9,-12
399213711866,-3,-27,26,16,-11,-6,-9,-11
399213720014,-6,-26,-33,-24,6,-13,-14,-9
399213720014,3,43,65,13,-1,-2,2,8
399213726108,-11,18,-2,32,-11,-48,-62,-18
399213726108,-4,-3,29,-1,20,86,79,39
399213742615,6,-15,37,25,7,-6,3,-2
399213742615,3,35,9,27,7,26,22,10
399213748756,-2,13,-108,-61,12,5,-7,2
399213748756,-19,-27,10,-11,-49,-59,-41,-29
399213764436,5,-7,35,11,24,7,-12,0
399213764436,-7,28,-88,-15,-12,33,39,6
399213764985,6,6,-49,-38,-15,-25,-19,10
399213764985,3,-18,15,22,59,49,16,2
399213780082,-2,-4,-50,13,-12,0,-1,-9
399213780082,-8,20,114,110,-2,-35,-30,-14
399213786071,-2,-3,-72,-55,-2,15,23,11
399213786071,19,-15,-32,-15,-14,-14,-11,-4
399213801091,-8,5,-3,-14,-6,-3,-12,-12
399213801091,2,8,-17,15,16,15,3,-3
399213808705,-7,-8,76,80,-4,-36,-38,-21
399213808705,-14,-11,-24,-15,6,4,66,-6
399213831713,8,5,26,36,13,27,29,11
399213831713,7,11,-31,-45,-19,-20,-4,-6
399213832620,-9,-12,64,-1,-6,-9,-30,-5
399213832620,-3,-12,33,30,-10,-34,-60,8
399213840039,31,3,36,34,24,51,62,42
399213840039,-13,11,-51,-48,-4,7,1,-20
399213846262,2,-4,45,1,-1,-1,4,5
399213846262,2,-12,-55,-27,-3,-17,-19,-5
399213861259,-10,12,4,-27,-8,-15,-11,2
399213861259,2,12,-20,-30,-20,-8,-11,7
399213868757,-9,-23,15,43,2,-11,0,-8
399213868757,-5,-3,-19,4,5,-3,-7,-6
399213883468,-11,7,-19,-17,-22,-27,-30,-27
399213883468,-2,5,-18,-33,-3,-11,-16,-2
399213891223,2,-14,39,56,8,39,27,4
399213891223,-13,-8,-84,-19,-19,1,7,1
399213900029,-3,13,52,32,11,-34,-38,-27
399213900029,2,6,11,-1,-26,-30,5,18
399213906042,0,-17,2,-44,14,34,28,0
399213906042,12,-5,123,127,8,-73,-120,-19
399213921211,-51,19,-24,-9,1,76,76,6
399213921211,24,5,-27,-58,9,2,-7,46
399213928610,2,-8,-11,-8,-10,-15,-9,-27
399213928610,8,-7,-31,-35,29,34,10,8
399213943655,2,24,29,23,-1,-48,-48,-18
399213943655,-10,6,88,69,1,5,11,-2
399213951199,9,-7,1,-6,5,20,16,26
399213951199,-3,-6,-11,-37,-9,-8,4,-14
399213960062,6,8,-60,-48,-14,-9,3,10
399213960062,-6,6,69,42,16,21,18,-8
399213966206,-4,-34,-55,26,-4,2,14,3
399213966206,-3,-4,-19,-45,-24,-11,3,-9
399213981031,6,1,28,41,11,23,7,4
399213981031,-1,0,-42,3,-2,-8,-21,-8
399213988672,2,-3,0,-36,4,-23,-61,7
399213988672,-5,-2,-69,-57,-14,40,93,-7
399214003680,-11,-8,81,82,10,-22,-31,-9
399214003680,0,2,-102,-27,-18,-42,-36,-18
399214011113,11,-7,53,3,-1,22,5,16
399214011113,6,-4,-8,-33,-10,-20,-17,-8
399214020098,16,3,34,43,17,13,8,1
399214020098,-12,-3,7,-1,-2,-6,-1,-12
399214026153,-5,-3,-1,-4,-17,-22,3,0
399214026153,-1,-1,42,1,-3,6,-4,4
399214041129,12,5,-75,-34,6,13,21,1
399214041129,-5,0,57,41,13,16,7,8
399214048542,1,-3,-47,-97,-7,7,21,1
399214048542,2,-1,21,97,43,-15,37,4
399214063655,-9,7,-28,-20,-1,20,5,13
399214063655,8,-3,-21,-2,0,59,48,13
399214071254,-4,0,-21,-2,3,8,11,-4
399214071254,-8,-5,28,-34,-15,-19,-34,-7
399214094832,1,3,-9,-17,-7,-48,-42,-4
399214094832,-2,0,-39,37,-2,-3,4,-10
399214095763,1,-2,33,-3,-8,-11,-9,-5
399214095763,-8,-2,-6,21,5,4,-26,-6
399214101205,19,3,48,-3,-21,3,4,7
399214101205,-10,2,-87,-54,-22,-13,-18,-10
399214108632,2,-11,-43,-34,7,8,9,5
399214108632,-14,4,11,-26,2,-4,-6,-12
399214123657,20,9,-34,9,5,25,20,36
399214123657,-16,0,49,-3,-18,-22,-24,-68
399214131077,3,3,37,24,-4,-26,-40,3
399214131077,10,-1,-40,8,28,45,22,19
399214155077,-6,14,0,-17,-13,-22,54,-7
399214155077,3,1,43,4,7,-3,-21,15
399214155636,-6,-23,-39,-23,5,10,27,6
399214155636,5,-2,71,63,7,0,-17,-16
399214161009,-13,11,1,-18,-12,-35,-40,-19
399214161009,6,0,8,21,4,-3,2,16
399214176726,-5,-9,31,1,7,6,24,2
399214176726,1,-3,-56,-36,-20,-7,-1,8
399214183556,-12,18,7,-12,3,-2,-15,-14
399214183556,-7,2,-93,-54,-5,-6,9,8
399214191148,0,-22,19,17,10,6,-11,-4
399214191148,-5,0,-43,-18,-16,2,7,-1
399214206719,-2,28,-25,-51,-13,23,3,-11
399214206719,-3,1,-19,81,14,-2,-14,5
399214207531,0,-34,-64,-54,-2,-5,-7,-7
399214207531,-7,6,13,22,-2,-27,14,1
399214221136,20,17,7,-34,3,43,-4,-1
399214221136,3,1,11,-25,-13,-12,0,12
399214228600,8,-27,64,52,-2,2,18,-5
399214228600,-24,-4,-59,-27,-1,-18,-27,18
399214244955,-14,34,40,-12,-18,-8,-21,-16
399214244955,2,2,50,36,11,2,7,10
399214251223,-3,-28,5,19,-9,-11,-18,-7
399214251223,16,-3,15,0,-7,7,6,8
399214266893,-3,18,-28,2,0,-24,-19,-1
399214266893,-6,-1,-13,4,-5,40,32,10
399214267453,-10,-19,-32,-7,16,2,-2,-13
399214267453,-2,-3,31,4,-6,0,-6,-16
399214281187,-4,24,-26,-5,-4,-11,-9,-4
399214281187,-7,1,53,44,-12,-60,-50,-19
399214288697,-2,-52,-86,-18,-2,57,88,15
399214288697,8,-3,0,-6,11,3,-14,-24
399214303730,2,32,32,29,-12,-18,-8,5
399214303730,-1,-1,23,-34,22,36,12,17
399214311204,-9,-29,3,-28,-1,-32,-16,-2
399214311204,-1,-3,0,-7,-4,2,2,-3
399214326808,4,23,30,16,-10,10,2,3
399214326808,-1,0,-19,-33,0,-9,-2,1
399214327506,-9,-40,-25,26,0,-22,-11,8
399214327506,25,4,23,27,4,29,19,-15
399214340983,-6,32,18,14,-14,-14,-22,5
399214340983,6,0,-19,-16,-13,-9,15,5
399214348514,15,-22,7,-14,16,24,17,0
399214348514,-22,-3,17,-30,-8,-6,-39,17
399214363707,-3,33,3,9,-13,-10,-7,-11
399214363707,4,-1,-25,-21,-6,20,11,2
399214371182,7,-26,-72,-20,13,-9,0,-1
399214371182,-1,-2,17,-41,-12,-12,1,4
399214386825,-1,24,-30,21,0,-6,-11,-1
399214386825,0,-2,18,8,-10,-2,-8,5
399214387403,0,-11,48,-45,10,-7,-19,-11
399214387403,-3,0,-30,54,11,4,17,1
399214400963,-1,22,21,-15,-9,-6,2,1
399214400963,11,-1,26,-19,-19,-4,1,1
399214408450,-5,-12,21,46,7,-5,-9,-8
399214408450,-2,0,-69,-56,11,13,22,3
399214423611,4,19,57,42,-11,-45,-69,-9
399214423611,1,-1,-5,-8,-17,24,-8,9
399214430989,8,-14,-5,-26,13,51,17,-1
399214430989,-18,0,39,-15,1,-13,-2,-7
399214446808,7,14,-8,3,-1,11,9,1
399214446808,-2,-2,-51,52,16,-20,-28,1
399214447470,-11,-21,-29,-45,-25,-39,-11,18
399214447470,3,0,-3,3,11,10,5,-28
399214460987,-8,11,-26,-10,-6,6,-1,6
399214460987,-1,0,-25,30,-3,-9,-5,-8
399214468547,-2,-17,-12,-23,14,1,14,1
399214468547,-2,0,125,91,12,-8,1,4
399214483551,7,24,1,-21,2,17,19,7
399214483551,-4,0,39,10,0,-3,-2,3
399214491104,6,-10,-1,-16,-4,6,15,-6
399214491104,2,-2,10,33,14,-6,-7,0
399214506667,-6,4,-14,-38,-27,-16,-11,-5
399214506667,4,-2,27,-13,-5,23,18,5
399214507611,-12,-11,19,45,2,-13,6,-10
399214507611,8,22,12,-38,-9,-14,-17,-3
399214520968,-1,19,26,31,3,21,69,16
399214520968,-11,0,81,-5,-3,-12,-17,-9
399214528485,-6,-19,0,6,0,-19,-17,-5
399214528485,8,-5,-37,-34,-6,-1,0,1
399214543677,4,17,15,28,-6,8,-6,3
399214543677,2,1,15,-48,-1,-6,1,-1
399214551140,-19,-20,-22,29,11,2,4,-6
399214551140,4,-4,2,5,-4,-6,3,4
399214566793,-5,18,2,-13,-27,-12,-27,-10
399214566793,-1,2,-3,-24,-2,-1,0,3
399214567487,10,-18,1,43,21,-5,-12,-5
399214567487,-1,-5,-6,12,3,13,30,5
399214581069,-4,21,-20,-39,-13,1,-8,-2
399214581069,-2,3,-11,12,3,-27,-63,-6
399214588690,14,-19,14,-26,7,39,50,5
399214588690,-11,-6,-41,-17,0,-7,-20,-6
399214603591,-2,22,-13,-14,-11,11,33,7
399214603591,3,-1,17,19,-3,-13,-22,-1
399214619318,0,-18,-6,-6,2,-20,-19,-12
399214619318,3,-5,-32,-34,8,10,10,16
399214626747,-7,12,34,38,-4,-4,-17,-5
399214626747,-1,3,-27,0,-13,0,8,-3
399214627496,1,-24,5,12,0,-21,-16,-12
399214627496,-2,-3,-19,-45,7,43,40,18
399214641110,9,23,35,25,-8,-14,-25,-19
399214641110,-7,4,-24,-27,5,14,26,4
399214648580,1,-16,27,11,5,-7,-11,-5
399214648580,3,-5,31,-15,-3,0,1,-2
399214671690,-13,26,-22,15,2,1,-10,-3
399214671690,3,4,-33,4,-20,0,0,-4
399214672561,-9,-15,15,-29,18,9,5,2
399214672561,7,-6,-42,66,4,-30,-27,-9
399214686739,7,16,-18,-7,-1,28,56,11
399214686739,-1,6,3,-9,-23,-21,-8,-6
399214687524,-4,-25,-5,-1,7,-23,-26,-4
399214687524,-6,-5,1,13,11,20,41,-6
399214701062,-1,20,24,13,-5,-11,-31,0
399214701062,-1,6,-53,5,-17,-1,-1,1
399214708478,6,-23,-14,-5,14,4,10,1
399214708478,-1,-7,103,16,17,-4,-8,-6
399214725140,-9,7,-43,-23,-19,-12,-14,0
399214725140,-2,4,61,22,-2,4,7,-1
399214731067,7,-18,5,-23,0,12,17,6
399214731067,-3,-4,-7,-25,4,-7,-5,-4
399214746839,1,19,7,8,-2,3,-3,6
399214746839,-3,5,-34,28,-10,-3,-12,0
399214747402,-3,-16,-14,-19,0,2,11,-7
399214747402,1,-7,-51,-29,1,-30,-13,-9
399214769166,-7,11,-9,-15,5,38,11,8
399214769166,-4,3,-13,2,-1,-7,-12,3
399214769958,-4,-7,49,19,6,0,23,-2
399214769958,1,-5,-79,-10,-1,-15,-59,-15
399214791709,0,14,-4,-20,-6,-9,-9,15
399214791709,-4,5,56,1,-5,21,28,3
399214792502,-2,-11,-13,-1,-12,-17,-27,-13
399214792502,-8,-5,29,-9,14,-4,-9,-4
399214806749,5,10,-27,-26,-9,-5,-6,1
399214806749,0,4,38,33,-11,0,1,-3
399214807401,-4,-7,-63,11,4,-11,-7,2
399214807401,0,-5,23,-8,7,9,20,3
399214821172,0,8,28,-5,-12,-7,1,-1
399214821172,-11,2,-36,20,-6,-9,-8,-5
399214836823,6,-6,-24,-7,9,13,9,-1
399214836823,-4,-4,18,36,4,1,10,-5
399214843601,5,6,-1,-5,-2,-9,-18,-2
399214843601,2,4,19,-21,-16,-21,-44,0
399214851126,-3,-5,-44,-20,14,36,65,5
399214851126,-3,-5,32,59,19,-7,-59,-7
399214866031,-5,6,-63,-24,-9,-1,18,2
399214866031,14,5,14,-2,-7,24,11,11
399214874414,14,-3,-1,3,2,-11,-1,7
399214874414,-4,-6,-4,-25,1,-4,5,-7
399214880971,-2,4,-15,29,-4,-11,-4,3
399214880971,-15,6,-3,-29,-15,-8,-18,-19
399214888654,-12,-4,24,18,3,4,-8,-8
399214888654,2,-7,-33,-15,18,8,25,1
399214911776,0,3,68,-5,-8,-2,-10,2
399214911776,4,8,1,1,-10,0,14,7
399214912475,-1,-4,-5,-10,-9,-3,-9,-5
399214912475,2,-7,9,4,16,5,16,-1
399214925982,-3,4,-49,-3,-8,-6,-17,-2
399214925982,6,8,11,-10,-7,-1,1,7
399214934200,-2,-4,-7,-19,3,-8,-3,-8
399214934200,3,-9,-17,-16,-4,-12,-11,-5
399214941149,1,3,29,22,-4,34,4,0
399214941149,3,8,18,-14,2,9,7,16
399214948545,-8,-4,-39,12,11,-31,11,-22
399214948545,-4,-8,-1,11,7,23,25,1
399214963514,-2,2,27,11,-8,-22,-4,-7
399214963514,-2,8,-2,-7,-10,14,10,4
399214971185,10,-4,65,6,9,-10,-24,-4
399214971185,-4,-8,-45,-17,11,1,13,-6
399214986105,0,2,50,37,-5,-5,-5,2
399214986105,3,7,-75,-8,-4,-12,-15,4
399214994156,-7,-2,-16,5,18,8,-1,1
399214994156,4,-8,6,2,1,-5,5,-4
399215002504,0,2,-11,-6,-7,6,3,6
399215002504,2,5,46,12,7,1,-4,0
399215008493,-3,-2,-37,5,9,8,-4,-3
399215008493,-2,-5,-21,-24,-2,-2,30,-1
399215023678,-1,0,25,1,-11,-18,-14,1
399215023678,-3,4,15,-4,-10,4,0,-4
399215031200,1,5,13,11,16,-6,-24,-3
399215031200,-15,-2,39,6,-22,8,30,1
399215045986,2,-31,-19,27,9,12,-9,-2
399215045986,-6,-18,-25,-13,33,0,23,-13
399215054887,3,78,37,-10,11,7,2,-3
399215054887,-2,71,71,54,-49,-22,-48,15
399215069301,-7,-80,-23,-14,-22,-1,-8,0
399215069301,0,-87,14,0,29,1,21,-5
399215069951,3,21,23,16,17,-2,2,-8
399215069951,-2,42,-37,-32,-38,-1,-16,1
399215083732,-6,-48,25,19,-29,-1,7,16
399215083732,-2,-69,33,30,56,6,7,-6
399215091130,0,9,-58,-27,17,3,15,-9
399215091130,4,57,6,-11,-35,-9,-31,2
399215106007,-3,-20,-2,2,-24,10,-10,6
399215106007,-3,-54,54,37,29,3,14,-10
399215114312,4,9,23,-18,10,6,12,-5
399215114312,4,67,41,47,-29,5,-12,2
399215137508,-6,-39,-53,-67,-6,-11,-23,2
399215137508,5,-64,-51,-13,20,0,15,3
399215138157,1,33,23,30,4,-11,-15,-5
399215138157,5,55,6,9,-17,14,9,7
399215144955,-3,-25,-4,-6,-9,7,10,4
399215144955,0,-47,-24,-17,9,-4,4,-6
399215151263,2,16,-4,-12,1,-4,6,-1
399215151263,-1,40,-22,-7,-13,-5,-12,3
399215166011,0,-2,33,11,-6,-4,-2,3
399215166011,-6,-16,-42,-15,6,-1,1,-6
399215173869,-1,33,17,7,0,-5,-21,-13
399215173869,0,34,-38,-35,4,7,8,7
399215189294,0,-9,42,37,-2,-2,-17,1
399215189294,3,-10,-46,-46,0,-16,2,-2
399215189956,-5,23,6,-8,-5,1,17,-8
399215189956,0,19,-22,-6,-21,5,-12,1
399215205000,-3,-6,-49,-7,8,0,9,4
399215205000,-7,-30,-16,-6,-13,-20,-13,-10
399215211113,0,35,30,-3,10,3,4,-3
399215211113,-3,29,5,0,-9,-6,-6,-4
399215226030,2,-12,-9,-9,-10,-9,-12,0
399215226030,-5,-18,16,25,6,-1,-8,-6
399215233928,3,25,-22,-22,-4,-43,-65,-2
399215233928,2,43,40,31,1,80,71,7
399215249212,4,3,-2,-10,-2,-10,-2,3
399215249212,1,-7,36,-6,2,-4,-2,-4
399215249927,-7,26,-28,25,-7,-1,0,-3
399215249927,-2,3,-31,-30,-3,-39,-23,-1
399215263516,-4,-4,33,24,1,6,16,-1
399215263516,2,12,13,-27,5,10,14,-1
399215271780,-2,7,-20,-17,-2,16,12,2
399215271780,3,11,43,12,-8,-22,-22,1
399215286059,-3,13,-69,-39,-8,1,10,2
399215286059,0,-10,8,-7,18,1,1,3
399215294256,-1,-11,26,25,3,7,17,-1
399215294256,-1,21,-17,16,1,-3,-9,0
399215309288,-2,23,27,-2,-7,-18,-32,-1
399215309288,0,-10,-21,-17,-8,6,2,-1
399215309956,4,-11,-17,-10,4,18,36,7
399215309956,-4,2,14,-3,4,-23,-34,-7
399215323625,-2,7,21,18,-7,11,4,-3
399215323625,5,-3,-6,5,2,8,7,9
399215331177,-14,-22,-60,-16,5,13,11,-3
399215331177,2,4,41,26,-3,-24,-34,-6
399215346029,-16,-26,-85,-42,-9,5,-1,-4
399215346029,-4,7,20,30,-2,-15,-25,-12
399215354303,12,7,47,0,-1,4,12,15
399215354303,2,-4,-15,-6,-2,9,2,4
399215369264,0,-14,11,-6,1,-15,-5,2
399215369264,-3,-4,-19,-5,-2,2,6,0
399215370031,2,-24,-24,-11,-6,-1,-8,-1
399215370031,-3,-11,-14,3,9,0,2,-3
399215391672,7,-15,65,3,-5,-3,2,1
399215391672,0,-40,-10,25,7,-7,-4,0
399215392507,4,-20,27,-12,4,14,30,4
399215392507,-3,-27,3,-8,-4,-7,3,0
399215406025,5,-31,-39,1,6,0,2,-1
399215406025,0,-42,9,-3,-10,-8,-1,-3
399215414269,0,-34,8,-11,10,-22,-57,-4
399215414269,1,-14,-8,3,1,37,82,9
399215429076,3,-30,37,33,0,5,-10,-3
399215429076,-4,-35,-20,-11,-3,-12,-11,-2
399215430118,-2,-32,-1,-17,0,9,19,-2
399215430118,-7,-21,-13,-12,-5,-24,-27,-5
399215443566,1,-26,-17,13,8,-7,-2,-4
399215443566,-1,-12,-57,-50,2,14,16,0
399215450987,-3,2,27,16,-7,-4,4,-4
399215450987,-5,-15,-60,-5,8,-12,-20,-5
399215466171,2,-12,3,-5,-9,0,11,1
399215466171,-3,-3,8,9,7,3,3,-1
399215474068,1,0,-6,-11,8,2,4,-2
399215474068,1,-5,-22,-16,-6,-6,-15,-1
399215489248,-1,2,15,21,4,-7,-7,-3
399215489248,3,-12,-23,-19,-7,26,40,3
399215489890,-1,10,11,19,-5,-2,-4,-3
399215489890,0,4,-22,-15,0,-2,-5,1
399215503551,-5,6,20,-12,3,-3,-3,-3
399215503551,-5,-5,68,68,11,-9,-11,-6
399215510917,0,4,-8,-10,-7,4,9,2
399215510917,0,1,18,13,-6,2,0,-3
399215526068,-5,3,-17,-18,-4,-8,-3,1
399215526068,2,-4,1,-27,2,-6,-10,0
399215534263,7,2,17,14,3,5,3,0
399215534263,0,5,25,-3,-10,-8,-3,13
399215549115,1,2,-16,-2,1,4,22,2
399215549115,0,-19,-21,-20,1,-40,-73,-7
399215549880,-9,20,-16,-4,3,82,96,14
399215549880,7,-13,24,-19,-10,-13,-14,-11
399215563561,2,38,77,37,3,-2,-8,1
399215563561,-3,-10,-16,-9,-1,1,2,-2
399215571078,-3,-9,-49,-24,-2,-27,-30,-2
399215571078,-2,6,50,33,-7,3,2,-1
399215586087,-7,-3,0,-16,6,8,2,4
399215586087,3,4,-9,-10,2,3,13,-1
399215594229,0,-25,28,2,-6,-20,-21,-5
399215594229,-8,-2,6,42,7,7,8,-1
399215609279,1,-12,-26,-10,-9,-19,-22,-4
399215609279,-3,0,-17,-13,-6,11,19,4
399215609958,2,-3,13,0,10,-2,-4,1
399215609958,2,10,-3,-14,1,4,-7,2
399215623633,-4,-3,-9,-2,-2,1,-1,-7
399215623633,3,1,83,30,1,5,11,1
399215631163,-6,3,-11,2,-14,-12,-12,-8
399215631163,0,7,49,11,1,-10,-7,-3
399215645988,-3,-21,-42,-7,-2,4,2,-1
399215645988,1,0,-11,-22,1,12,20,2
399215654318,-1,-6,0,9,-1,-14,-16,-3
399215654318,-3,-1,-47,-21,0,2,-3,-5
399215669207,0,-13,-2,2,-1,2,4,4
399215669207,-4,12,70,25,-1,-3,-11,-4
399215670086,1,-8,-46,-21,-12,-17,-18,-5
399215670086,-2,-1,6,-2,7,13,13,2
399215683670,4,-10,-18,-4,1,3,1,-1
399215683670,-1,-5,-29,-7,-2,-3,4,1
399215691065,1,11,5,10,2,-3,-7,-2
399215691065,1,-1,-16,-15,-4,1,0,0
399215706110,-2,-7,-17,-10,2,-3,-5,-2
399215706110,-3,-5,-23,2,-4,-2,1,-4
399215714320,0,-6,3,-17,3,3,-2,-1
399215714320,4,15,25,-25,6,4,2,3
399215729165,-4,11,33,20,0,-3,-3,-1
399215729165,-4,-5,-14,-7,-18,-14,0,-9
399215729904,3,-4,-4,1,9,9,11,2
399215729904,-1,3,13,-3,1,-3,-3,-2
399215743570,-1,-6,-6,1,0,2,1,0
399215743570,-1,-4,-27,-7,-11,-10,-9,-4
399215767505,3,4,21,6,8,2,2,2
399215767505,-1,-7,-14,5,-1,-2,4,-1
399215768933,-2,-5,2,2,-2,-4,-6,-1
399215768933,0,-10,-29,-3,4,2,0,0
399215774405,-3,2,-4,5,-4,-1,-2,-3
399215774405,-3,-7,-10,-19,-26,-4,0,-2
399215788577,8,8,41,20,39,18,10,7
399215788577,-3,7,-7,4,-4,0,0,-2
399215796651,0,1,11,6,-1,0,1,1
399215796651,-1,-7,-29,-12,-9,-8,-9,-3
399215811687,0,0,17,-14,-8,0,0,-3
399215811687,1,-4,-11,-5,9,3,0,-1
399215812402,-3,1,0,8,-5,-9,-5,-3
399215812402,0,3,0,9,7,4,0,1
399215826136,-2,-8,-21,-8,-8,-4,-1,-3
399215826136,0,-5,4,8,1,-4,-5,-3
399215834303,1,-2,-12,-8,2,2,3,2
399215834303,-1,-3,17,13,3,-2,0,1
399215848561,-3,-3,-13,-4,-4,1,-1,-1
399215848561,-2,-7,-8,-6,-3,-2,-1,0
399215856693,-3,9,8,-2,-4,0,0,-1
399215856693,-2,2,-17,-2,4,0,2,-1
399215863647,-2,1,-10,-5,-8,-7,-3,-2
399215863647,2,-14,3,-1,1,4,2,1
399215871152,-2,-6,3,10,-1,1,-2,-2
399215871152,-2,-2,-11,-2,5,-1,-4,-2
399215886134,-1,-8,-1,3,-11,-5,-5,-3
399215886134,0,-3,1,-2,7,6,4,1
399215894738,1,4,0,1,-2,-3,-1,-1
399215894738,-1,-5,-11,-3,-2,-4,-4,-3
399215908431,-5,-10,3,-1,-15,-7,0,-1
399215908431,-1,4,-9,-6,12,6,1,3
399215916705,0,-6,-8,-6,2,0,1,1
399215916705,-4,7,24,27,-2,-2,0,-2
399215923592,-6,-21,-25,-9,-3,1,-3,-5
399215923592,1,-5,0,2,-8,-7,0,-1
399215931161,-2,11,-2,-5,-3,3,-5,-2
399215931161,0,-13,-6,-3,7,3,4,2
399215946134,-1,-7,-2,-8,-13,-9,-3,-2
399215946134,4,22,-3,18,-2,-1,-5,-1
399215961765,-1,-19,8,-5,6,6,9,1
399215961765,9,47,3,12,7,-4,-5,0
399215968634,-7,-21,13,-7,-1,1,4,-2
399215968634,-2,17,-1,-6,2,7,2,-1
399215976659,0,32,4,8,-3,-6,-4,0
399215976659,-2,18,-12,-6,-2,0,-3,-2
399215991736,3,29,-2,0,4,-3,0,0
399215991736,1,26,-3,-3,1,-4,-4,0
399215992503,-3,28,-3,2,-4,-2,-3,-1
399215992503,-4,-27,4,-18,-5,3,3,-1
399216015607,3,34,-2,7,6,-1,-3,0
399216015607,-4,-14,-7,-13,-8,1,2,-3
399216016300,2,7,-15,4,1,-3,-2,-2
399216016300,-3,9,4,-7,-1,-4,-4,6
399216028593,-3,7,-8,-1,1,2,-1,-1
399216028593,3,9,5,8,2,3,2,12
399216036781,0,-13,6,-2,-1,-4,-1,-7
399216036781,-1,-11,-29,-7,-6,-3,1,-5
399216051684,7,-22,16,5,-1,1,-3,-4
399216051684,-6,-8,-1,2,4,-1,1,-2
399216052411,2,-5,3,-3,-4,0,0,1
399216052411,-4,-38,5,-7,-4,-2,-1,-2
399216066069,-15,-13,-28,-3,2,-2,-3,-8
399216066069,7,-19,8,2,-2,-4,-1,-1
399216074278,4,-16,5,0,-1,-3,-3,13
399216074278,-2,-10,-2,0,3,3,-1,-31
399216088402,-1,-4,2,-8,-1,0,0,10
399216088402,1,-9,-5,5,0,-2,-4,-3
399216096778,-9,-3,-6,-2,-5,-2,-3,-1
399216096778,1,-10,-1,-2,0,1,1,9
399216111594,3,-30,-3,3,1,-2,2,-2
399216111594,-4,1,-8,-17,-2,-3,-1,-5
399216112477,2,-3,19,12,1,0,0,-3
399216112477,-4,2,-13,-12,-9,-4,-2,1
399216125943,5,-11,29,24,22,4,1,4
399216125943,1,47,25,0,-1,2,2,0
399216134354,-7,-64,-55,-19,-1,0,-1,-6
399216134354,-14,30,11,14,-5,-10,-5,-7
399216148431,3,-11,-4,-3,-9,-2,-1,2
399216148431,-9,-16,-28,-17,-6,-2,-3,-5
399216156817,-1,6,2,-1,1,0,-1,-3
399216156817,2,-17,3,-1,1,0,3,3
399216171783,2,10,-4,-3,-2,-1,-1,0
399216171783,-4,-7,-2,8,2,-2,-1,-1
399216172411,-3,-5,1,-9,-4,-4,-2,-1
399216172411,-1,-35,-27,-3,2,3,2,4
399216186107,2,19,3,6,-2,-1,0,-2
399216186107,5,-20,-10,-4,-1,3,3,5
399216194261,-6,-34,18,5,-4,-3,-2,-3
399216194261,5,-16,-3,-5,-1,2,3,2
399216208618,1,14,-10,-12,-6,-3,-2,-2
399216208618,-6,-14,-14,-6,-1,0,-2,-3
399216216619,9,10,9,22,13,6,0,4
399216216619,-6,13,-25,1,-1,-4,-4,-4
399216231728,-5,2,23,-24,-9,-4,-2,-6
399216231728,-1,-5,-14,-1,-6,-3,-1,2
399216232367,3,24,17,-4,-5,-2,-1,-2
399216232367,-1,9,-5,2,3,0,0,1
399216246084,2,4,-31,-1,2,5,2,-4
399216246084,-6,18,113,19,-2,-6,-5,-1
399216254270,-2,2,-53,-24,-7,-5,-2,-1
399216254270,-4,23,18,1,1,0,-2,-3
399216268434,1,4,6,5,-2,-3,0,3
399216268434,2,2,1,-1,2,3,1,0
399216276612,-2,6,5,4,0,-2,-1,1
399216276612,1,-8,3,-4,-1,-4,-4,0
399216291598,-6,-10,10,-2,1,4,4,-15
399216291598,-3,21,-29,15,3,7,6,11
399216292520,-2,16,12,-4,-7,-4,-1,-2
399216292520,3,-31,-27,-5,2,2,1,3
399216306000,0,-7,-4,8,-1,-2,-3,0
399216306000,-4,-28,-16,-15,-8,-4,-4,-3
399216314257,-2,2,-5,8,9,2,0,-3
399216314257,0,-7,19,0,1,2,0,2
399216328600,-3,2,-21,-7,-5,-2,-3,2
399216328600,1,-4,-2,-5,-7,-3,-2,-5
399216336712,-2,-15,-3,-19,-10,-2,-1,-2
399216336712,-2,0,15,25,-1,0,1,0
399216351633,2,8,6,1,16,0,-3,3
399216351633,3,23,0,10,15,0,-1,-1
399216352543,1,4,-2,-2,-2,0,1,-2
399216352543,-1,-8,6,-6,-12,-3,-2,-1
399216366149,2,-4,-5,1,-9,-1,0,3
399216366149,1,-7,3,-6,-2,-1,-2,-2
399216374233,-7,6,-7,1,0,1,-3,-2
399216374233,0,0,-3,-5,7,-1,2,-1
399216388584,-3,1,5,3,-3,-3,-2,1
399216388584,0,-13,-10,-4,-3,0,-2,-2
399216396750,0,-3,1,4,1,1,0,-1
399216396750,1,4,-6,-31,-5,-2,-1,-2
399216411777,-1,-6,11,44,17,3,-1,-1
399216411777,-1,-8,-11,-10,-6,-4,-1,-3
399216412364,-1,2,6,-4,-5,-3,0,-1
399216412364,3,7,13,-8,-17,-1,6,1
399216426026,-2,-13,-9,12,41,3,-12,-4
399216426026,-1,-10,-7,3,-4,-2,-2,-1
399216434265,0,14,-3,0,-4,-4,-4,-3
399216434265,-1,-9,0,15,-2,-4,-2,3
399216448427,-4,3,-5,-44,-30,-6,2,-3
399216448427,2,-7,22,49,31,7,4,3
399216456737,1,-2,3,-5,4,1,1,0
399216456737,0,-1,-5,-3,-2,0,-3,-1
399216471535,-1,13,1,-16,-19,-5,0,0
399216471535,5,-8,-8,6,0,-2,5,2
399216472510,-9,-10,0,-2,5,0,7,-1
399216472510,3,3,-6,10,4,-3,-20,-4
399216485957,5,-3,1,-8,-9,0,18,5
399216485957,-10,-3,-5,-17,-26,0,-17,-6
399216494307,2,-8,9,40,18,8,9,-17
399216494307,-1,-2,-3,18,19,-8,-30,-3
399216508748,3,-1,-5,-32,-39,-8,-6,5
399216508748,-4,8,-2,42,19,-2,2,-2
399216517320,8,4,-1,-4,-24,-4,11,11
399216517320,-4,5,7,-12,1,5,12,-1
399216530894,-1,-15,11,18,6,-2,-8,-7
399216530894,2,17,-6,-25,-20,0,10,6
399216539941,4,-15,1,-17,1,-2,-11,-3
399216539941,1,-5,-2,19,16,1,5,-2
399216546072,-7,-5,-7,-7,-11,-5,-1,1
399216546072,1,-6,-7,-14,-5,-2,-1,-6
399216555007,-5,3,-13,-2,8,-2,-6,2
399216555007,1,-2,26,-14,-16,-1,1,1
399216568481,-4,-4,-19,-2,8,0,4,-2
399216568481,-2,-8,-8,-12,9,-1,-2,-3
399216577428,-1,10,8,-3,-3,-5,-10,-3
399216577428,-2,-3,-12,0,-2,4,9,1
399216591108,-9,-1,22,2,-1,-2,-2,7
399216591108,9,3,-10,18,6,-5,-4,-7
399216600031,-4,-19,-37,-34,-8,2,2,-2
399216600031,1,8,32,30,1,-4,4,12
399216605996,-3,13,-15,-17,4,-1,-3,6
399216605996,-16,-2,25,-19,-9,1,-3,-44
399216614920,-27,-4,10,0,2,2,-2,27
399216614920,10,9,-1,0,-2,-8,-7,18
399216628444,18,4,-12,9,7,3,3,-11
399216628444,-28,-18,48,-18,-4,14,3,-45
399216637433,9,2,-24,1,-2,-1,-8,-24
399216637433,-7,3,3,-7,-4,0,8,12
399216651212,-15,0,26,20,0,-5,-6,0
399216651212,25,-12,-40,-21,-4,-10,-7,31
399216659912,0,0,32,4,1,1,2,2
399216659912,-4,5,25,9,-2,-1,-3,-21
399216666057,11,-8,-52,7,1,1,3,6
399216666057,5,-3,-1,-17,-1,0,2,7
399216674891,-6,-3,-22,14,-1,-2,-3,3
399216674891,0,-6,-10,-10,-3,-1,1,-5
399216688638,-8,-5,14,3,5,4,-3,-11
399216688638,-1,-5,-29,-7,-12,-3,1,22
399216697430,3,1,16,10,18,-3,-3,-9
399216697430,-1,0,-25,-16,-4,3,1,-5
399216711129,-3,5,24,11,-1,0,-1,-4
399216711129,2,16,-21,-12,-29,-11,-5,1
399216719912,10,12,15,29,38,7,2,10
399216719912,-7,-12,-34,-40,-12,2,6,-10
399216726093,4,1,4,11,-29,-3,10,1
399216726093,12,22,7,-11,17,11,25,49
399216742384,-27,-21,2,17,-7,-3,-13,-51
399216742384,-45,34,10,-40,-34,-12,-33,-1
399216748419,20,0,-13,-26,1,-4,-36,-13
399216748419,-1,-16,15,73,34,11,10,5
399216757350,-7,11,14,37,-30,-11,2,-3
399216757350,22,-7,5,-33,30,2,-14,-3
399216771017,-6,-22,-12,-26,-47,-27,-21,-2
399216771017,2,6,-9,-18,8,-13,-12,0
399216779872,11,-1,5,-12,-4,11,10,10
399216779872,0,3,-5,38,-7,6,23,-15
399216786294,-7,12,8,7,21,17,20,7
399216786294,1,-14,-6,3,14,4,-6,-8
399216794903,4,5,6,-11,-12,-4,9,6
399216794903,0,-15,-25,-15,-7,-1,6,3
399216808426,-2,0,-15,3,18,5,3,3
399216808426,-6,-17,33,-2,-15,-6,-6,-10
399216817425,3,20,-62,-27,-13,-9,-6,3
399216817425,10,-3,2,18,11,1,4,5
399216831019,-4,10,-9,5,9,-1,-5,-4
399216831019,-6,11,-2,-1,-17,-9,-5,-11
399216839918,7,-14,-2,-39,-4,3,-2,11
399216839918,5,-30,-20,37,35,6,3,2
399216846053,-5,4,-26,4,-2,0,7,-6
399216846053,3,-6,-7,-6,-4,1,4,3
399216854909,4,-3,-23,-25,-7,-6,-4,4
399216854909,-1,3,40,2,-8,0,-4,-11
399216868630,10,-8,12,6,4,-1,-2,3
399216868630,-5,6,-13,9,-2,-4,13,58
399216877400,18,-2,8,-31,-5,-7,-24,-5
399216877400,8,-3,-7,5,-2,9,2,-50
399216891047,-18,9,31,15,10,4,15,50
399216891047,0,-3,-9,9,-3,-15,9,-26
399216899901,5,5,26,7,1,5,-24,67
399216899901,-11,-5,-8,-3,-3,30,51,-69
399216915006,18,-5,-4,-17,5,4,3,17
399216915006,3,-10,11,-17,-1,-6,-23,-35
399216916545,-39,-9,22,13,-2,-14,-3,-18
399216916545,3,12,-7,-6,-6,-19,-17,2
399216928385,-3,-4,1,0,1,-1,-4,-3
399216928385,-14,-20,-22,-11,-6,3,-10,-11
399216937430,4,1,-6,0,-1,4,10,-32
399216937430,1,3,10,3,0,-4,-13,42
399216951099,-10,1,9,9,-3,1,9,-14
399216951099,3,3,-19,-26,-6,3,-9,2
399216960083,4,4,64,30,8,4,8,2
399216960083,-8,-20,-79,-22,-11,-12,-5,22
399216974867,4,2,-54,7,1,-1,-6,-10
399216974867,3,8,33,-4,-2,2,0,-15
399216976336,3,-8,-6,-5,-4,-2,7,3
399216976336,0,2,21,10,5,2,-4,12
399216997306,-6,-5,3,-14,-4,-3,-5,-27
399216997306,-7,2,-9,8,2,2,1,12
399216998896,9,-1,-15,2,2,4,9,-6
399216998896,1,4,20,3,-11,-11,-11,9
399217019750,-3,3,28,1,9,2,-2,-3
399217019750,-1,-5,23,-3,1,1,3,1
399217021381,2,-1,24,-2,-2,-4,-3,-1
399217021381,2,5,-11,-1,0,-1,1,0
399217036473,-8,-1,34,-4,-10,-6,-5,-5
399217036473,3,-5,16,0,2,0,-2,-12
399217036540,-4,0,-9,1,0,0,1,-6
399217036540,1,1,-13,0,-1,-4,-4,10
399217048493,-2,-2,18,-1,0,2,3,3
399217048493,-2,3,-9,-4,2,0,-3,2
399217057727,-1,-4,-15,-6,-3,-2,0,-1
399217057727,-1,1,8,2,-1,-3,-1,5
399217070921,1,-5,-14,-4,-2,-2,-3,-2
399217070921,0,-3,-27,-6,-5,-2,-1,-1
399217095555,1,3,-3,7,8,1,2,1
399217095555,-2,-3,-7,0,-2,0,2,1
399217096386,0,-3,-12,-6,-2,0,-1,-3
399217096386,-1,3,20,4,-3,2,1,4
399217097916,-1,0,-8,-9,-4,-1,-1,-1
399217097916,-2,0,0,2,-1,0,-4,3
399217108573,-1,-2,30,1,2,2,3,-5
399217108573,-3,-1,-33,7,-3,-6,-5,11
399217117411,0,-2,0,1,-2,0,0,-1
399217117411,7,1,26,3,2,-1,-3,-5
399217131142,-1,-4,-44,-4,-5,-1,-3,-4
399217131142,-2,8,36,7,2,1,-1,-3
399217140042,1,-3,-6,2,-1,-1,0,-1
399217140042,-2,-3,3,-1,-3,-2,-4,2
399217154872,0,-3,4,1,1,-2,0,-2
399217154872,2,2,-6,-1,4,1,2,-1
399217156336,-6,-3,-12,-3,-3,-2,-1,1
399217156336,-1,0,17,-2,-2,-1,0,1
399217168444,1,-3,-6,-3,2,0,1,1
399217168444,-5,-3,-1,-5,-1,-1,-1,-6
399217177373,0,-3,-10,-3,-3,-1,0,-1
399217177373,0,1,-4,-2,3,-3,-2,2
399217192366,0,-3,6,2,0,0,0,-3
399217192366,4,4,10,-6,-4,-1,-3,4
399217205999,-1,-2,-20,7,0,0,0,-2
399217205999,-1,-3,2,-5,-4,-2,-2,-1
399217223095,-3,-4,5,3,-3,-2,0,-3
399217223095,2,-4,-13,-3,3,0,0,-4
399217224562,-3,3,10,-9,-2,-4,-2,-6
399217224562,7,-3,-2,10,1,-2,0,2
399217228575,-3,-5,-20,-11,-2,-1,-2,-3
399217228575,-1,-1,-3,2,-1,0,1,1
399217237429,1,3,-1,-6,-1,1,1,-3
399217237429,-4,-5,14,13,1,0,-1,0
399217250872,1,0,0,-3,2,-1,-2,2
399217250872,0,2,8,4,1,0,-1,-2
399217259909,-1,-3,-17,0,-2,0,0,0
399217259909,-2,1,1,-5,-3,-1,0,-1
399217274699,-1,0,-2,-3,-2,-2,0,2
399217274699,-4,-7,-10,-3,-3,-1,-2,-4
399217282394,-2,2,8,3,1,1,-2,-1
399217282394,-2,0,-8,-3,-3,-3,0,4
399217288520,-2,-4,-9,-3,-3,-1,-1,-5
399217288520,-1,1,-13,-6,0,-2,0,-3
399217297408,-1,-2,22,5,-2,0,0,0
399217297408,-2,-2,-5,-2,2,-1,-1,-1
399217311078,-3,-3,-16,-3,-3,-3,-3,0
399217311078,1,1,25,0,0,1,1,1
399217319896,-2,-6,-44,0,0,-1,-1,-2
399217319896,-5,-1,-8,0,-3,-3,0,-4
399217336435,2,5,14,10,2,1,-1,0
399217336435,-3,-7,-31,-13,3,0,-1,-2
399217336470,-1,1,20,6,1,-3,0,0
399217336470,-1,3,-1,-3,1,1,0,-1
399217358826,0,-4,-5,-2,-1,-2,0,-2
399217358826,-1,3,0,3,-3,-1,0,-1
399217361943,0,1,0,-6,-1,-2,0,2
399217361943,-1,-3,-9,-4,-3,-1,-3,-2
399217372891,0,1,13,-1,0,-1,-2,0
399217372891,-2,-1,-11,-2,-3,-1,0,-2
399217380054,-1,-3,6,0,0,-2,1,2
399217380054,-1,-2,9,2,2,4,1,0
399217395352,-2,2,-16,0,-4,-2,-2,-2
399217395352,-2,4,-21,-4,-5,-4,-4,-1
399217396861,-4,6,-4,-1,-4,0,-3,-1
399217396861,-1,7,5,-4,-5,-2,-3,0
399217417397,1,5,2,-8,-7,-2,-2,0
399217417397,0,15,36,6,0,1,-1,2
399217418819,-3,9,-2,9,1,0,0,-1
399217418819,-2,6,-16,-6,-5,1,-1,-1
399217430968,-1,5,-4,-3,-5,-2,-1,-1
399217430968,-2,9,8,0,-7,-1,-1,-1
399217439956,1,8,5,-5,-4,-1,0,1
399217439956,-1,7,0,-2,-2,1,0,-3
399217454912,-1,9,2,6,3,3,3,2
399217454912,-1,4,-3,3,1,1,1,-1
399217456479,2,9,-1,-7,-2,1,-1,0
399217456479,-2,8,9,2,2,-1,-1,1
399217468606,2,3,-6,-8,-3,-2,-1,1
399217468606,-2,2,16,15,1,0,-2,0
399217478079,0,-2,-14,-7,-3,-1,-2,-1
399217478079,4,-1,6,-2,-4,1,0,-3
399217491020,-1,-1,9,-1,1,2,-1,-1
399217491020,1,-3,-7,-5,0,-1,0,-1
399217499950,-3,-4,-4,-5,-2,-2,-3,-4
399217499950,-2,-4,-3,0,0,-2,2,0
399217514848,-2,-5,13,0,-1,-1,0,0
399217514848,-1,-6,-11,-3,0,-1,-2,0
399217516401,0,-4,10,0,0,-2,1,-1
399217516401,0,-9,-9,-5,5,0,0,0
399217528509,-1,-9,0,4,2,-2,-1,-2
399217528509,2,-5,5,-6,-6,-1,0,0
399217537512,1,-2,-1,-2,13,1,0,2
399217537512,-3,0,5,-1,-2,-1,-1,0
399217551025,-3,-4,7,11,-4,-4,-2,-3
399217551025,0,-4,-10,-4,2,-1,0,-1
399217559985,-1,-2,-5,-5,-6,-1,-1,-3
399217559985,1,-4,1,0,-2,-1,-2,-1
399217574689,2,0,2,-4,0,0,-1,0
399217574689,0,-2,3,3,-2,1,-1,0
399217576371,-1,-4,18,-4,-2,0,-2,-2
399217576371,-5,-6,-31,-1,-1,-4,-3,-4
399217588470,1,0,1,-2,-4,-4,-2,-1
399217588470,0,-1,-4,-5,0,-3,-1,-2
399217597449,-1,-3,8,1,0,2,1,0
399217597449,-1,4,2,3,-1,-1,-2,-2
399217610843,0,-5,-14,-6,-1,0,-2,-3
399217610843,-1,0,12,0,0,0,-1,1
399217625976,0,-3,-4,6,2,2,1,0
399217625976,-3,-2,3,-6,-5,-2,-2,-1
399217634813,0,-4,-22,-5,1,0,1,-2
399217634813,-1,0,-6,-7,2,0,-1,1
399217636328,-1,1,4,15,-4,-2,-1,-2
399217636328,1,-3,9,-5,-4,-3,0,-1
399217648393,-1,0,8,0,0,0,0,0
399217648393,1,-3,-3,1,5,3,0,-1
399217657542,-1,-3,-17,-8,-1,-3,-4,-1
399217657542,1,-3,14,0,1,1,1,-3
399217670964,-3,-9,-30,0,-1,-3,-1,-4
399217670964,-1,-3,-1,1,-6,-6,-1,-4
399217679904,0,-7,-7,-1,3,-2,-2,-3
399217679904,0,-4,0,1,-4,-3,-3,0
399217694233,0,-3,3,-5,0,1,-1,-1
399217694233,-5,-4,-2,2,-1,-1,0,-1
399217700825,-2,1,0,-2,-2,-3,-3,-2
399217700825,-2,1,-1,-5,-4,0,-1,0
399217708458,0,1,3,6,-2,0,0,-1
399217708458,1,1,-11,-2,2,1,-2,-2
399217717408,-1,2,14,-11,-12,-3,-1,-2
399217717408,-3,2,-17,15,14,-1,-2,-2
399217731017,-1,-5,5,-2,-4,-1,-1,1
399217731017,-2,2,8,-1,-5,-3,-1,-3
399217739989,1,-2,-11,-1,0,-1,2,0
399217739989,1,-1,1,-4,-6,-3,0,-1
399217755537,-1,-4,12,-4,0,-1,-1,0
399217755537,2,0,-23,2,0,-1,-2,1
399217761151,1,-4,3,2,-2,-1,0,2
399217761151,-2,-2,-6,-8,-2,0,2,0
399217768345,-2,-1,6,3,2,1,0,-2
399217768345,-2,-3,-6,-6,-2,1,-1,-1
399217777359,1,6,20,0,1,1,-2,-1
399217777359,2,-4,-26,-4,-4,-1,-2,1
399217790944,-2,-4,-3,-5,1,-1,-2,1
399217790944,-1,0,4,0,-1,-1,-1,-3
399217799957,-3,0,2,1,1,-2,2,-1
399217799957,2,-3,4,-1,0,-2,1,-1
399217814220,-2,-1,-3,-2,0,0,0,-1
399217814220,1,1,7,0,0,0,-2,-1
399217820865,-3,-5,-22,0,0,-1,-2,-2
399217820865,-1,-2,4,-8,1,2,1,1
399217828376,1,-1,5,0,-3,-3,0,-2
399217828376,-2,-2,-25,-2,-3,-2,-2,-2
399217837354,0,0,25,10,-2,-3,-4,-3
399217837354,-2,-1,-8,-6,-6,-1,-1,-2
399217851077,-1,1,7,4,4,2,-1,0
399217851077,0,-4,2,-5,-7,-2,0,0
399217859918,-2,2,-17,-5,-1,-1,-2,0
399217859918,0,0,0,4,0,0,0,-2
399217874079,-1,0,8,-4,-2,-2,-1,0
399217874079,1,-1,0,3,1,-2,0,-1
399217881041,-2,-2,-21,-4,-1,0,0,1
399217881041,1,1,20,4,0,0,-1,-2
399217897335,0,-10,-66,-9,0,0,0,-2
399217897335,-2,1,17,-5,-1,-2,-2,-1
399217899021,0,3,4,2,-1,1,1,-1
399217899021,1,-2,3,-1,3,-2,-2,-1
399217910950,1,-2,13,-1,3,-2,-1,1
399217910950,-2,-5,-12,0,0,-1,-2,-1
399217919934,0,0,15,3,-6,-2,-2,-2
399217919934,-2,-6,-33,-5,1,1,0,1
399217934234,1,1,18,3,2,-1,-1,-1
399217934234,-1,-2,9,-6,0,0,0,-1
399217941008,-2,-1,-7,-6,-2,-1,0,-1
399217941008,-2,2,8,9,-1,-1,0,0
399217964823,0,-3,1,0,2,1,-1,0
399217964823,1,0,8,5,1,1,0,0
399217966440,-1,-8,-27,-13,3,-1,-4,-4
399217966440,0,1,21,2,-3,-1,-3,0
399217970874,-4,-5,-5,-2,-5,-4,-1,-1
399217970874,-1,1,-14,0,-2,-4,0,-1
399217979979,0,0,-2,1,2,2,2,0
399217979979,-2,1,5,-2,1,0,-3,-3
399217994190,0,1,16,-7,-5,0,-1,-1
399217994190,-3,-7,-18,-5,4,-1,0,-2
399218000983,-1,3,-9,11,-3,-2,0,-2
399218000983,-2,-2,-4,-6,-2,-2,-1,-1
399218017352,0,1,15,4,-2,0,1,0
399218017352,-2,-3,-16,-8,0,-2,-2,-2
399218018925,2,1,7,-7,1,0,0,-1
399218018925,0,2,-3,5,-4,-1,-2,0
399218031039,-1,-4,-4,1,2,1,0,-2
399218031039,0,-1,14,-1,-2,1,0,1
399218040007,-1,2,-22,0,2,-2,-1,-2
399218040007,-4,-2,19,-1,-3,-1,0,0
399218062205,0,-2,5,-1,-2,-2,-3,-2
399218062205,0,1,3,4,1,-1,-1,-1
399218063903,0,-2,-1,-1,-3,0,-1,1
399218063903,-1,0,-3,-7,0,-1,-3,-1
399218077429,0,3,-3,8,4,1,0,1
399218077429,0,-1,5,-7,-3,1,-2,-2
399218078995,-5,-1,28,5,-2,-1,-2,-2
399218078995,2,-3,-10,-4,0,-2,-1,-1
399218090880,-4,0,-8,0,0,-3,-1,-4
399218090880,0,1,18,6,-2,-2,-5,-2
399218099908,1,-1,-27,-13,-2,-3,10,1
399218099908,-1,-3,31,10,-1,-1,-2,0
399218114127,-1,-7,-7,-3,1,1,6,-3
399218114127,3,5,-2,10,0,1,1,0
399218121032,-2,-5,21,-16,-4,-4,-8,-3
399218121032,-1,2,-26,9,1,-3,-1,0
399218137320,-1,0,11,-6,-3,0,1,-1
399218137320,-2,-4,-14,-13,-4,-1,0,1
399218138974,3,2,29,13,1,4,1,1
399218138974,-4,-5,-4,-16,-2,-7,-6,-13
399218150902,-1,1,18,8,3,2,-2,8
399218150902,0,-3,-8,6,-2,-3,-6,-4
399218159846,1,6,13,-15,-3,-20,-37,-7
399218159846,-4,-3,-9,-1,-6,7,54,6
399218189764,-7,-15,-32,4,-9,-3,-2,-9
399218189764,-1,-12,-49,-8,-12,-21,-21,-3
399218191510,5,8,10,2,12,41,37,14
399218191510,-2,4,-13,-10,2,-25,-29,-12
399218197279,-5,-14,-50,-11,10,1,1,-2
399218197279,-5,-15,7,2,-8,2,6,-5
399218198877,2,5,15,23,-6,-17,-11,-4
399218198877,-4,-7,-56,-40,3,-6,-12,0
399218211020,11,18,18,5,7,16,18,14
399218211020,-5,12,35,60,8,-14,-21,-8
399218220011,-8,-16,-60,-52,-15,-2,-1,-5
399218220011,9,7,89,31,-20,21,26,2
399218234241,-5,-30,-60,-21,4,-9,-19,-4
399218234241,4,6,40,-2,0,4,10,7
399218240931,-8,-15,-17,26,6,0,34,-12
399218240931,7,21,36,-15,9,23,9,9
399218257202,-7,-40,13,-2,-10,-26,-30,-12
399218257202,1,16,-12,-10,1,17,54,2
399218258824,2,-44,-55,-58,-16,-18,-27,8
399218258824,0,26,-8,59,36,22,0,-1
399218270811,-9,-32,-54,-82,1,-41,-54,-13
399218270811,-20,-3,20,27,-11,-14,21,0
399218280037,19,-14,39,-9,-5,2,8,-1
399218280037,-10,-21,-94,19,0,-15,-16,1
399218294085,7,16,33,8,3,6,8,4
399218294085,4,9,12,22,14,-15,-35,3
399218300927,-4,13,-13,-55,-8,0,5,4
399218300927,2,-8,-20,-22,-4,6,10,-3
399218317305,-4,-7,67,36,-19,-14,-4,-8
399218317305,-6,14,-18,-65,-1,13,-11,-8
399218318927,3,30,78,85,31,16,6,6
399218318927,-4,-33,-13,-41,-15,-21,-32,-12
399218330984,-2,26,25,7,1,9,21,4
399218330984,6,-1,-27,-19,10,23,13,8
399218339847,-3,14,12,-22,-18,-1,-2,-2
399218339847,-2,-15,-49,-13,10,-16,-26,6
399218354260,8,4,-5,32,18,33,21,11
399218354260,2,7,48,15,-5,-7,37,-2
399218360982,-4,4,21,20,0,-64,-71,-9
399218360982,1,10,-50,10,9,65,85,21
399218377233,-6,-20,-30,-24,-15,-25,-4,-7
399218377233,6,-9,12,-7,15,0,-21,8
399218378845,0,-10,-69,28,5,9,-2,4
399218378845,-4,15,53,3,-12,-31,-15,-12
399218390927,1,-8,-36,-15,-12,-12,-9,-1
399218390927,-1,-14,-9,7,-2,10,1,0
399218399894,-2,19,20,4,-4,-9,-1,-4
399218399894,-12,-43,21,-48,-37,-17,-23,-14
399218414185,0,-20,-9,18,9,21,22,1
399218414185,7,-15,-24,-8,-6,-14,-21,4
399218420967,-1,34,-12,-38,1,13,13,-13
399218420967,5,6,-11,26,12,-11,-18,6
399218443986,0,14,12,-19,9,9,9,1
399218443986,-17,-9,1,34,-20,-18,-18,-16
399218453588,11,-16,-22,-12,2,14,19,5
399218453588,0,5,-22,31,6,-21,-71,-10
399218455364,10,15,34,19,11,38,54,7
399218455364,2,9,38,-10,-2,-6,-7,17
399218459974,-18,6,8,15,12,24,26,0
399218459974,-1,-13,25,7,-10,-27,-31,-9
399218474046,-3,9,4,-14,-12,-22,-16,-7
399218474046,4,8,-19,1,-1,1,-2,-7
399218482464,-10,4,21,29,-23,-7,-23,-4
399218482464,5,10,-6,-18,24,8,27,8
399218497272,-1,9,28,18,-15,-14,-18,-1
399218497272,7,6,-29,-8,4,29,28,4
399218498960,-5,-11,-27,18,22,-8,-11,-1
399218498960,-1,2,13,-16,-11,5,9,-2
399218519871,0,7,-8,-5,7,0,1,-6
399218519871,-2,-5,-27,-19,-10,-16,-28,-9
399218521478,-3,4,23,-22,-24,-8,11,-2
399218521478,3,2,30,27,0,-31,-66,-9
399218534149,0,-7,20,-12,19,88,49,12
399218534149,-12,-14,-81,-33,-14,-33,-40,-9
399218540984,5,3,8,1,-8,9,13,9
399218540984,8,2,34,9,14,17,19,3
399218557258,-1,20,-45,29,4,-17,-18,-3
399218557258,-1,-20,58,32,3,5,9,-3
399218558949,0,26,-15,-23,-2,-6,-19,-7
399218558949,-3,-8,-1,11,-8,-1,19,6
399218570863,6,-1,5,-11,-3,-9,-7,1
399218570863,1,-3,4,-21,10,14,17,0
399218587319,0,-12,-3,36,-18,-13,-14,-2
399218587319,3,12,45,-17,24,27,30,0
399218594200,-13,-9,-47,24,-1,-19,-16,-12
399218594200,4,3,2,5,-5,-8,-14,-4
399218608517,-1,-8,-11,-16,-1,3,1,3
399218608517,-4,-8,-13,-33,-7,4,6,0
399218617368,-5,-28,-61,-24,-13,-33,-34,-10
399218617368,-7,19,32,16,9,32,43,9
399218618979,0,-7,-38,-3,-2,-15,1,-7
399218618979,-2,-11,-51,-19,6,25,9,1
399218630861,3,0,53,-3,-3,-11,-5,-1
399218630861,-5,1,-9,-7,-12,-14,-16,-8
399218639871,1,-7,28,0,8,0,-9,0
399218639871,-2,1,-10,1,-9,-17,2,-6
399218662313,1,23,31,9,-2,-13,-8,-2
399218662313,2,-3,47,3,2,5,-4,-1
399218663831,-8,-51,-58,-20,-8,-1,4,2
399218663831,-6,-7,-1,72,-2,-4,0,-1
399218677250,-1,-7,-4,6,11,4,3,2
399218677250,-2,-2,27,-5,3,0,4,4
399218683433,1,10,40,13,7,-2,-5,-4
399218683433,-7,7,-1,-19,-22,-11,3,-2
399218690864,1,2,16,-14,0,10,10,9
399218690864,3,-13,-9,22,10,-5,-11,0
399218699942,1,5,36,46,5,22,30,9
399218699942,0,12,46,37,-15,-29,-42,-11
399218714080,-6,-5,-12,-37,-3,20,40,8
399218714080,4,7,23,-6,-1,-9,57,-4
399218720980,-3,-7,-16,-5,4,3,-12,-2
399218720980,4,1,16,-17,-1,1,0,4
399218737130,4,2,12,4,-13,-17,-7,-2
399218737130,-10,-27,-94,-22,8,-2,-21,-2
399218743542,-3,3,50,1,0,-2,2,1
399218743542,-1,-10,37,40,-2,0,17,5
399218751491,4,-1,6,-10,6,-7,-18,-1
399218751491,-1,13,-34,-17,-4,4,-5,-1
399218759987,4,-8,4,9,10,-1,-5,2
399218759987,-4,7,-21,-29,-3,6,6,8
399218782276,-1,-8,-2,12,6,3,4,0
399218782276,-5,-10,-11,-13,-11,-1,-11,-5
399218783884,6,-25,-53,-6,3,-1,-7,-6
399218783884,2,20,42,11,6,7,10,6
399218797086,-10,-10,-13,20,-8,-6,-10,-13
399218797086,1,-13,-37,-23,-5,-9,-10,-11
399218804825,-4,-6,-2,-15,-6,-1,-16,8
399218804825,0,-10,-23,-17,12,27,23,3
399218819717,1,8,31,8,-13,-29,-40,-7
399218819717,-4,3,14,-4,8,-6,11,5
399218821504,-2,0,-24,-3,-3,13,35,-1
399218821504,-2,-13,-36,-28,-10,-10,-11,-7
399218834062,-2,1,2,-13,0,3,-6,-4
399218834062,0,3,80,35,-2,-15,-14,-2
399218840954,-1,26,0,32,-3,-11,-10,-7
399218840954,-2,-25,-36,-23,-6,0,6,-3
399218863848,2,-4,-23,-14,4,-2,3,6
399218863848,6,9,45,19,-1,10,-9,4
399218872449,-5,7,-5,-15,-2,0,-4,-4
399218872449,3,9,-6,-23,11,14,8,7
399218879424,0,-5,9,27,-11,-9,-13,-9
399218879424,6,3,-22,-17,6,28,25,10
399218887451,-1,2,16,-3,-2,-1,-1,2
399218887451,0,4,8,-15,-7,-25,-21,-3
399218894237,0,2,-13,-26,1,18,25,3
399218894237,1,28,21,16,1,-3,-18,1
399218900943,5,-4,-5,1,-5,4,25,0
399218900943,-2,-9,-4,-1,1,-9,-8,-6
399218916625,4,-8,25,-2,13,19,9,4
399218916625,-6,5,-53,9,-4,4,-5,-1
399218948050,-5,1,-2,-19,0,-3,-6,-2
399218948050,4,2,-16,3,0,-10,-8,-5
399218948637,-8,-2,40,15,-9,-4,3,-1
399218948637,3,13,19,-31,-8,0,-1,-4
399218950346,-5,-1,-8,-2,23,-3,-17,-3
399218950346,-2,-14,11,49,-2,5,11,-1
399218962345,-4,-14,-57,-46,-10,-3,-2,-3
399218962345,-3,-1,21,61,1,-5,-13,-4
399218963773,-1,3,28,-6,-6,-4,-9,-4
399218963773,-4,-16,4,-6,-1,16,19,1
399218976599,-1,15,12,12,6,-2,-10,-6
399218976599,-2,-5,-28,-9,-4,-4,12,0
399218983485,-3,-11,16,-2,-1,3,-1,6
399218983485,-5,-7,-73,-6,-6,-8,0,-5
399218998906,3,1,39,-4,-3,-9,-7,3
399218998906,1,2,-29,-23,5,1,3,-5
399219016342,-4,-28,-29,-39,-2,-3,-2,1
399219016342,0,-11,8,-2,2,1,-5,-3
399219016963,0,6,17,37,2,-3,-4,-1
399219016963,0,-5,-37,-31,-2,-13,-34,-5
399219020981,-2,-5,10,28,-1,12,19,-2
399219020981,1,3,-4,-15,-3,0,-2,-1
399219044822,-4,5,-48,2,-5,-2,7,0
399219044822,1,-10,60,24,11,3,-4,1
399219046360,0,12,-25,-27,-2,3,-7,-4
399219046360,-5,-9,-22,28,7,1,4,1
399219059879,1,3,20,-13,-16,2,4,-4
399219059879,1,-3,17,5,21,2,5,3
399219061493,0,9,32,24,-6,-8,-10,-4
399219061493,2,1,-11,-25,-2,13,7,5
399219074188,-3,2,-17,-9,-1,-8,-16,-4
399219074188,-6,-10,14,3,-5,1,11,1
399219088616,1,4,26,3,0,-39,-83,-6
399219088616,3,4,17,17,8,58,73,9
399219096725,-7,16,-36,-17,-3,-12,5,2
399219096725,11,-14,43,-5,-4,9,7,-9
399219103530,-3,-7,-7,28,5,4,-1,2
399219103530,-5,1,59,19,-1,-23,-27,-5
399219119847,1,1,-31,-9,3,-3,-4,-1
399219119847,-5,-6,17,-3,-16,-11,-5,-3
399219121448,5,6,23,-42,-2,8,25,5
399219121448,-8,-6,-83,21,10,-18,-25,-13
399219134096,5,-10,13,6,5,12,14,-2
399219134096,-5,-1,-12,-5,-12,-24,-32,-2
399219140997,7,-2,-17,-4,6,16,34,9
399219140997,-5,-6,33,-31,-4,-6,-8,5
399219164847,-3,-7,-29,7,1,-3,-8,-2
399219164847,-3,-8,-39,-2,-1,6,-8,1
399219166337,0,4,-17,-6,1,-3,10,-4
399219166337,5,0,28,-3,1,5,7,3
399219179619,4,-1,30,6,11,-2,-16,3
399219179619,-8,-2,-66,-29,-4,17,15,3
399219181327,5,-10,8,27,-15,-4,0,-7
399219181327,1,3,19,-12,5,-17,-15,-5
399219194033,0,-25,28,8,-9,-2,-1,-1
399219194033,1,20,-32,-10,12,5,13,-2
399219200906,-15,-29,-8,3,1,0,-1,-5
399219200906,1,13,20,14,-10,-12,-11,-1
399219216652,2,0,15,0,4,-3,1,-1
399219216652,2,0,5,2,-8,-4,9,2
399219223498,-7,9,-7,5,0,-3,3,-5
399219223498,1,-7,6,-21,-3,-2,-2,-5
399219239713,-1,8,17,10,7,11,10,1
399219239713,-8,-9,-16,15,-11,-15,-10,-6
399219241419,0,15,40,38,0,-1,-3,0
399219241419,-5,-2,-8,-16,-4,-3,-4,-3
399219254135,1,-1,-34,-11,-1,3,2,2
399219254135,3,-4,14,-9,2,3,14,3
399219260898,-2,-2,-10,-12,-2,-4,-7,-3
399219260898,0,3,-8,0,-12,-11,-11,-5
399219276665,-4,-8,1,11,2,-24,-28,-5
399219276665,-5,1,36,11,13,46,45,7
399219290884,28,-14,-90,-43,-7,-7,3,7
399219290884,-9,-12,-28,7,-5,-9,-8,-11
399219299804,-2,12,-14,-18,-9,-4,-4,-2
399219299804,-3,-6,20,-10,-7,-15,-13,-1
399219301324,-5,11,18,-8,-5,-6,-6,4
399219301324,4,-1,-2,-19,15,18,11,2
399219313451,1,-3,-63,-3,-7,-3,7,1
399219313451,4,10,-4,5,9,-9,-11,-4
399219322496,-6,4,1,22,2,9,4,-1
399219322496,6,-1,-12,-16,-8,-10,-8,3
399219336499,-10,-10,-8,-15,1,9,9,-3
399219336499,2,1,13,14,-6,-5,-7,2
399219344821,-3,-1,-9,-15,-4,-2,-7,-5
399219344821,-5,-14,-16,-6,-5,-3,-3,3
399219367398,1,10,50,32,3,5,8,2
399219367398,0,-5,-27,-16,1,-5,-5,-4
399219368965,-2,1,62,16,4,-18,-16,-7
399219368965,-7,-13,-49,-29,-7,29,45,5
399219373622,1,-4,44,-1,2,-6,-5,0
399219373622,-1,-6,-28,-21,-1,-3,-7,-3
399219382354,-6,-1,60,39,5,11,12,-2
399219382354,4,6,50,11,0,-18,-26,-1
399219396751,-1,-9,-35,-5,3,7,5,2
399219396751,1,4,-11,-9,-8,-4,-4,-3
399219403451,-6,-11,-20,-3,5,-6,-5,-4
399219403451,2,14,17,6,-8,-3,-8,-1
399219421190,-2,3,-8,1,8,7,8,0
399219421190,-1,-1,36,19,-8,-9,-13,-2
399219422917,-3,1,-18,-15,-4,9,8,1
399219422917,2,2,-10,-9,1,-9,-7,1
399219442235,2,13,38,8,9,8,5,-1
399219442235,5,9,-28,25,2,-1,-4,5
399219443774,-2,8,-8,-16,-12,-1,8,-1
399219443774,0,0,11,-9,5,2,-3,5
399219456661,1,5,-4,9,-4,-7,-11,-3
399219456661,-2,0,1,-19,-12,-12,-24,-8
399219463449,0,2,-28,2,20,21,41,15
399219463449,-3,-10,11,14,-3,8,2,-6
399219478831,0,8,11,-13,-8,-7,5,-1
399219478831,-1,-6,-36,-18,1,1,4,2
399219495552,-4,-16,-5,22,0,-7,-17,-3
399219495552,-1,3,-33,6,4,-3,3,1
399219496567,2,13,14,-3,6,4,5,1
399219496567,2,-16,16,-14,-3,-4,0,-3
399219502364,3,13,-1,4,-9,0,0,2
399219502364,1,17,33,12,31,15,1,5
399219516633,4,-23,-3,-14,-3,3,4,5
399219516633,-8,-31,18,-4,1,-3,7,1
399219523535,10,-21,7,-10,-6,-5,0,-3
399219523535,-1,-38,-47,-47,-10,-10,-7,-7
399219547366,-1,-27,54,33,11,-1,0,3
399219547366,-4,-17,-39,-23,11,0,13,-2
399219548819,-1,-41,-5,-19,6,17,-3,2
399219548819,-5,-19,70,58,-9,-13,-4,-5
399219553324,1,-39,-48,-35,3,10,18,1
399219553324,-3,-29,26,71,-1,-20,-22,-7
399219569817,-2,-31,26,5,-3,-9,-6,-7
399219569817,1,-34,-20,-10,-7,-5,-1,2
399219576648,-3,-23,-2,-4,2,-1,-10,-3
399219576648,-1,-16,4,1,-4,7,8,-1
399219590900,3,-18,-17,-15,2,-7,-10,-3
399219590900,-5,-1,20,18,3,1,4,-6
399219599099,-7,-4,-21,0,-14,-3,0,3
399219599099,3,3,26,22,6,1,-3,-3
399219605996,-6,-11,-6,-18,1,3,7,2
399219605996,3,-2,5,-18,-1,-8,-7,-1
399219622341,-2,8,-11,-3,-8,3,-2,-3
399219622341,-3,13,15,-4,3,7,7,-2
399219623743,-2,15,7,-1,-10,-12,-14,-1
399219623743,-1,1,-10,-13,13,10,3,0
399219636598,-5,-10,43,6,-2,-31,-27,-11
399219636598,2,22,11,2,-1,47,45,11
399219643454,-3,23,-19,-28,-7,-6,-8,-3
399219643454,-3,11,-23,29,-13,-12,-6,-3
399219659131,4,1,-42,-15,2,1,-5,-2
399219659131,2,1,6,-17,1,-10,-12,0
399219665923,-1,16,11,-7,-3,-2,1,-4
399219665923,-1,0,-23,-4,-1,2,-1,-1
399219673528,-7,16,34,-2,-5,-2,6,0
399219673528,-4,-2,3,4,-5,-9,-6,-2
399219682346,-2,4,-31,-2,1,4,4,-2
399219682346,5,15,0,-12,-6,-10,-5,9
399219696765,0,21,-7,26,7,0,-7,-4
399219696765,-3,6,-8,-21,-11,-10,-12,-2
399219703400,-5,2,-38,-33,2,3,-7,2
399219703400,-3,7,26,9,1,-2,24,-5
399219719245,-2,2,-45,-16,-12,-19,-39,-7
399219719245,4,19,52,16,7,42,37,12
399219725891,-1,10,-34,17,4,-8,-14,-7
399219725891,-3,3,46,0,-6,-6,-10,-3
399219742291,-3,6,-26,-2,-14,-1,-1,-3
399219742291,0,-2,-16,-17,3,-13,-9,-7
399219743960,0,2,17,16,-1,-3,-5,-2
399219743960,-1,-14,-6,22,6,9,-1,-3
399219772266,4,9,18,-7,-3,1,10,2
399219772266,-2,-3,-18,-23,-11,-8,-12,-4
399219773875,1,2,33,19,13,2,9,4
399219773875,0,4,-9,-26,-10,-3,-6,-1
399219779121,-3,-2,9,24,2,-14,-13,-5
399219779121,-1,1,1,9,2,17,21,3
399219793426,1,-13,7,-14,-1,8,6,2
399219793426,2,4,-10,8,-1,-6,-13,-4
399219802303,0,-12,4,-18,-4,-8,9,-8
399219802303,-4,7,-9,22,7,6,-2,0
399219803802,-4,3,19,8,-5,16,12,-1
399219803802,-3,-7,-3,-9,-3,-7,-14,-6
399219816864,7,0,0,-11,4,17,11,9
399219816864,-2,5,59,33,2,-21,-18,-6
399219824827,-3,-6,-37,-6,-5,-6,0,-6
399219824827,1,-4,-9,-6,-1,-1,0,-1
399219847302,-5,-5,-8,-16,-9,4,4,-1
399219847302,-1,0,20,29,5,-5,-4,0
399219848906,4,-3,29,33,0,-12,-6,-1
399219848906,-2,6,1,-9,-1,3,-3,-3
399219869729,2,-1,-11,-1,2,7,6,3
399219869729,3,-5,-33,-24,-3,-5,-3,1
399219871457,1,2,0,-5,-2,-2,-4,-3
399219871457,-5,-11,-55,-6,8,3,4,0
399219876581,1,3,-7,20,4,1,-5,1
399219876581,0,-5,-35,-23,3,7,7,-3
399219883298,-1,2,1,7,-2,-4,-7,1
399219883298,0,3,17,-9,-5,3,6,1
399219899011,0,-2,3,5,8,2,-3,-1
399219899011,-2,-15,-42,-21,-6,-8,-5,-2
399219905917,-2,-9,-1,0,-4,-3,-1,-2
399219905917,-1,-1,-17,-8,-4,2,-1,1
399219922131,0,2,-5,-5,3,7,10,2
399219922131,-4,-3,19,0,-8,-9,-10,-6
399219923737,-6,-6,20,4,-3,2,0,-4
399219923737,-1,6,9,-3,-3,-7,-2,-2
399219936442,1,-3,-23,-21,6,5,5,3
399219936442,-2,-3,10,24,-1,-3,-2,-4
399219943527,-1,5,-8,-11,2,-2,-5,0
399219943527,0,-6,-11,3,6,0,3,-1
399219959005,0,-3,-2,-3,-6,-3,0,-1
399219959005,2,4,-1,-10,1,-2,-2,3
399219973381,0,2,2,0,-2,3,3,1
399219973381,-2,0,10,7,2,1,1,1
399219998639,-2,-1,15,2,-3,2,2,-1
399219998639,1,-3,-16,-13,-7,-9,-10,-5
399220000119,0,0,-8,-6,-3,-4,-3,-1
399220000119,0,-3,13,0,7,6,7,3
399220001031,-3,-1,7,28,10,5,1,0
399220001031,-3,6,-13,-13,-4,-3,-2,1
399220004845,-1,-6,3,-8,-10,-3,-2,0
399220004845,-1,-2,-6,2,7,2,1,-3
399220018251,-2,-9,6,11,3,-2,0,-3
399220018251,-1,13,-6,-10,-2,-2,-3,-4
399220025867,0,2,0,-2,3,0,1,0
399220025867,0,-6,0,0,-8,-2,-2,-2
399220050408,-1,-4,5,2,-1,0,3,1
399220050408,0,4,2,-2,6,0,1,1
399220051205,1,3,0,-7,-3,-4,-2,-1
399220051205,-2,2,6,8,-1,1,-1,-1
399220065695,-3,-5,1,-1,-3,1,3,1
399220065695,3,-12,0,4,-3,-1,-4,2
399220066484,2,9,-14,-11,3,-2,1,-10
399220066484,-5,-11,0,15,3,-3,-2,2
399220079800,1,17,8,-5,-2,-3,0,-2
399220079800,-2,-12,-5,-2,-3,1,1,0
399220085971,-1,-8,-4,3,2,0,1,1
399220085971,2,-4,0,-4,-4,0,0,-1
399220101414,-2,9,-1,-5,-4,-4,-1,-2
399220101414,-9,-45,-7,-10,-5,-1,1,-3
399220102362,1,1,8,0,3,-1,-2,-1
399220102362,0,6,-2,6,-4,-3,-2,-3
399220124085,0,-2,1,3,-1,1,0,1
399220124085,4,24,-15,-4,1,-2,-2,-1
399220124735,-4,-6,-1,3,1,-2,-1,1
399220124735,-1,19,0,-12,-6,-4,-3,-2
399220139778,2,12,-2,2,-2,-1,0,-2
399220139778,0,9,-13,2,1,-3,-3,-2
399220145885,2,27,11,-1,-5,0,-3,1
399220145885,-1,25,-1,-5,-2,2,1,-1
399220161620,-3,-7,-3,-1,0,-2,-4,-2
399220161620,-4,-18,-13,-12,-1,0,2,0
399220162205,2,-5,-12,1,1,0,-1,2
399220162205,4,10,24,-1,-1,-2,-3,1
399220184089,-3,-4,-15,-4,-3,0,0,-2
399220184089,1,6,8,-4,6,1,0,-1
399220184853,-4,-10,14,7,-4,-3,-2,-1
399220184853,-2,-18,-6,4,1,1,1,0
399220200212,1,-15,-7,-9,-6,-1,0,-3
399220200212,4,27,16,15,6,-2,-3,0
399220205908,-5,8,6,-18,-2,-1,-1,-1
399220205908,0,-13,13,6,5,1,1,-1
399220221436,-2,1,-3,5,-2,-1,-3,-2
399220221436,-1,-13,7,-4,-2,0,1,-1
399220222477,0,-18,-12,-2,-5,-5,0,-2
399220222477,2,-13,-4,-2,0,-1,-2,0
399220244128,1,-8,2,-3,0,1,0,1
399220244128,-3,-15,13,7,3,1,-2,-2
399220244789,-1,-10,-17,1,2,-1,1,0
399220244789,-3,-6,-15,-7,-3,-3,1,-1
399220259821,-1,1,21,0,1,-3,-3,-1
399220259821,0,-8,-17,-5,-8,-4,-1,-1
399220265788,0,0,-4,2,3,1,1,1
399220265788,-1,-5,-38,-17,-2,1,-1,-2
399220281579,1,-9,30,17,0,1,-1,3
399220281579,0,-6,-29,3,0,-1,-1,0
399220282335,0,5,-1,-3,0,1,-2,1
399220282335,0,5,4,2,-2,-1,-1,-1
399220304086,-2,-10,-13,-6,-1,-1,-2,-2
399220304086,-2,-3,24,-7,-7,-2,-1,-1
399220304865,-3,-8,-17,2,6,1,0,1
399220304865,-3,1,9,-2,-6,-3,-2,-1
399220319881,-1,-2,-9,1,4,1,0,0
399220319881,-2,6,8,-8,-3,-1,-1,-2
399220325844,-3,2,5,0,-6,-3,-2,-5
399220325844,-3,-20,-11,-2,-4,-2,0,-1
399220341584,0,8,3,-10,1,1,1,-1
399220341584,-2,4,-7,-3,-5,-2,-1,-1
399220342291,-1,-2,-10,-5,-6,-1,-3,-4
399220342291,-3,1,11,20,-8,-2,2,1
399220357381,-2,-5,-1,34,9,2,3,-2
399220357381,5,14,4,-31,-8,4,47,51
399220363349,-3,-31,-2,-18,3,-2,-26,-61
399220363349,0,17,0,2,-8,-1,-21,9
399220378280,4,8,0,16,17,0,-5,0
399220378280,7,0,-2,-25,-33,-6,6,5
399220385912,-6,-9,13,49,34,7,19,20
399220385912,0,-5,-4,-8,3,-4,4,-7
399220401437,-3,0,-3,-8,-14,-3,0,2
399220401437,5,-7,2,4,0,-2,-8,-14
399220402232,-1,6,4,-20,-28,-5,3,8
399220402232,0,-1,5,15,34,10,-1,-8
399220417417,-1,5,-8,-7,5,-2,-2,5
399220417417,-9,-12,-5,16,0,-6,-15,-13
399220423415,-1,2,-5,-10,-11,-5,-7,-2
399220423415,-5,1,6,10,-8,-2,4,7
399220438359,1,-4,-1,-7,9,2,5,-3
399220438359,-4,-2,-2,6,9,-1,-11,-10
399220445979,0,7,3,5,0,-1,-1,11
399220445979,4,-2,-3,-15,-17,-5,3,-2
399220461604,-1,-8,-1,-11,-9,0,1,-4
399220461604,-4,-2,4,12,7,2,-10,-9
399220462267,3,-2,-6,1,-1,-1,2,8
399220462267,-1,-11,-17,-6,1,-1,1,-3
399220477387,-3,2,-8,-8,-7,0,-3,-6
399220477387,-2,-6,2,6,11,1,-2,-2
399220483345,2,7,0,-6,-6,-1,0,2
399220483345,-3,2,1,-16,-1,-1,3,-1
399220498284,-2,-1,-3,13,0,-3,-3,-1
399220498284,-2,0,0,5,-5,-3,-5,-5
399220505842,0,12,-5,-2,16,1,0,4
399220505842,1,-9,-24,-18,-4,2,-1,-2
399220522267,-4,3,20,9,-7,-3,-2,-2
399220522267,-2,11,30,10,4,-2,-2,-6
399220528486,6,10,-14,-2,-4,-5,-4,5
399220528486,-6,0,0,-2,6,2,2,-2
399220537429,0,5,9,6,-6,-2,2,-7
399220537429,-17,-6,-40,-10,4,1,-3,9
399220543383,9,-8,3,-11,-9,0,0,3
399220543383,0,17,14,0,-3,-3,0,0
399220558244,-1,-9,-3,-7,-3,-2,-1,-4
399220558244,-2,1,12,12,4,1,-2,-4
399220565833,-4,6,16,-3,1,1,5,26
399220565833,-3,-16,-48,-1,-3,-3,-11,-54
399220580942,-2,1,10,-6,-3,1,-1,5
399220580942,2,-3,-13,-6,1,-1,-3,-1
399220588495,-5,-11,-6,0,-2,-1,0,-1
399220588495,4,3,19,9,0,-1,1,11
399220597357,-3,-3,-14,-10,-3,-2,-1,-1
399220597357,5,-1,-3,-9,-1,-2,-3,-6
399220603460,-5,-14,5,9,1,0,0,-8
399220603460,0,1,27,6,0,1,2,11
399220618344,-1,-3,-21,-17,0,-2,-1,-3
399220618344,0,-6,2,-10,-11,-3,-1,5
399220625976,-1,1,6,32,11,3,-1,-7
399220625976,2,6,4,-31,-22,-7,-1,5
399220640959,-1,-6,-9,-22,6,-2,-1,3
399220640959,0,-12,-4,-3,3,1,1,-5
399220648404,-2,-3,-11,-27,-14,-3,-2,-8
399220648404,0,1,12,10,-15,0,8,11
399220657363,2,6,8,-3,-24,-5,-11,-10
399220657363,6,3,0,35,57,21,69,0
399220663437,-17,-8,-6,0,-16,-14,-70,-29
399220663437,6,-21,5,10,21,-19,-76,9
399220678463,-20,-8,0,-12,-14,-8,-4,-11
399220678463,6,11,2,17,-8,3,7,10
399220685774,1,8,1,-10,-13,6,44,9
399220685774,-8,-3,-5,0,5,0,13,-9
399220700985,6,-2,-4,11,8,-1,-4,10
399220700985,-3,-5,0,-18,-15,-5,-17,-10
399220708326,0,4,-3,2,13,7,11,2
399220708326,-1,3,2,5,-1,5,2,1
399220724129,5,-3,-7,1,6,3,10,2
399220724129,-4,-4,1,-5,-12,-7,-10,-3
399220724719,1,3,2,1,-1,-4,-5,-6
399220724719,2,1,22,5,12,3,14,5
399220738399,-1,1,-15,4,-1,1,8,3
399220738399,-2,-8,3,-2,0,-4,-19,-6
399220745996,-2,-6,-22,1,7,0,-4,2
399220745996,0,2,7,-8,-5,0,8,-1
399220760743,-2,2,-1,-1,-3,1,1,-1
399220760743,-4,-2,16,22,8,2,-12,-3
399220768399,5,-1,-1,-23,1,-1,7,1
399220768399,-1,2,-14,8,-4,2,9,-1
399220784034,0,6,23,3,-2,-4,-7,-5
399220784034,2,6,7,-9,-10,-5,-7,2
399220784734,-5,-9,-21,2,-5,-2,5,0
399220784734,0,7,-19,3,7,4,3,-2
399220799721,-5,-1,9,-2,4,2,0,6
399220799721,-3,-7,-51,-15,-9,-6,-11,-13
399220805902,8,8,27,12,3,0,1,-4
399220805902,3,-5,-1,9,-2,0,2,15
399220820916,-1,-4,-16,-1,4,0,2,-17
399220820916,-2,2,4,-10,-3,0,0,4
399220828486,-3,-1,0,-4,0,-2,-1,0
399220828486,-2,1,1,-2,1,1,4,1
399220844105,3,-4,-30,-2,3,0,2,15
399220844105,-2,5,23,7,-2,-6,-8,-3
399220844741,-5,-5,-5,-9,-3,-4,1,-1
399220844741,0,5,27,19,-3,0,8,18
399220859756,5,-4,-33,-19,1,4,-1,-9
399220859756,2,-4,23,-12,-8,-4,-5,-14
399220865774,-6,5,9,13,4,-9,-17,13
399220865774,-7,-5,-18,8,0,11,13,-20
399220881015,-3,-1,22,2,-2,-1,-6,-17
399220881015,5,1,-21,-17,0,-2,-1,26
399220888474,-7,-1,20,4,-3,0,3,-10
399220888474,1,-3,13,-16,0,-5,-2,-1
399220904098,3,5,30,28,0,-3,-2,10
399220904098,0,-4,-72,-10,-3,1,-4,-11
399220904746,4,3,27,-13,2,3,5,3
399220904746,-6,2,-3,5,0,-2,-3,-4
399220919778,-2,-8,-15,-7,1,-1,1,-3
399220919778,-5,2,52,11,-2,-4,0,4
399220925942,4,-3,-75,-3,1,4,2,3
399220925942,-3,-8,-11,4,-1,-6,-3,-12
399220941041,2,1,10,-12,-1,1,0,4
399220941041,-1,1,28,2,1,1,4,1
399220948266,-1,-4,-37,-5,-1,-1,-4,-7
399220948266,1,1,35,-7,-1,0,-4,-13
399220964147,1,-2,2,-2,-2,-3,-1,5
399220964147,-3,-9,-53,1,0,0,-1,1
399220964760,-5,5,53,12,-1,2,5,-3
399220964760,19,-1,-21,2,-1,-3,-4,3
399220979683,-4,-2,-13,0,1,1,0,3
399220979683,-2,1,-9,6,0,0,1,-7
399220985969,5,8,43,9,3,1,2,-1
399220985969,-9,-8,7,-17,-4,-4,-1,0
399221000844,-1,-8,-26,-5,-2,-3,-2,0
399221000844,0,-3,21,2,-1,1,-2,-3
399221008272,4,-2,-12,-1,1,-4,-2,1
399221008272,-5,5,6,-7,-1,-1,-1,2
399221024066,-2,-5,-10,-4,2,1,1,2
399221024066,-5,0,15,-4,-3,-3,-3,-3
399221024670,0,2,24,-3,-2,2,3,-3
399221024670,0,-3,-34,-3,1,0,-1,6
399221039709,-1,-2,15,-6,-1,-1,-1,-2
399221039709,-1,-1,5,4,-1,0,-3,0
399221045777,1,-2,-10,-4,-3,-2,-1,-2
399221045777,-2,-2,-8,-3,2,0,0,-2
399221060777,-3,0,3,5,1,-1,1,1
399221060777,-1,2,0,1,-2,0,-1,-4
399221068450,-1,-2,-16,-5,-3,-3,0,-5
399221068450,-4,-3,-9,1,1,0,-1,-2
399221084089,-2,2,13,-5,-3,-3,-2,-1
399221084089,-1,-4,18,0,4,0,1,-1
399221084710,-7,-13,-37,-11,-10,-7,-5,-7
399221084710,-1,0,-15,-2,0,-1,-1,0
399221098325,1,0,-14,2,1,0,0,0
399221098325,2,5,24,-4,-2,-1,-1,-3
399221105954,-2,-2,3,0,2,-1,0,3
399221105954,0,2,-1,-2,0,1,-2,2
399221121008,-2,2,14,2,-3,-1,-1,0
399221121008,2,-3,-10,-3,-1,-2,0,2
399221128456,-3,-1,-13,8,3,0,1,0
399221128456,-1,-3,12,-7,-3,0,2,-2
399221144131,1,3,15,9,-1,-2,-3,1
399221144131,-1,-1,-28,3,-3,-2,-1,-1
399221144746,2,2,14,-4,-1,0,-2,1
399221144746,0,-4,-2,0,1,-2,0,-3
399221158438,-6,-6,-18,-6,-4,0,0,-3
399221158438,-1,1,13,-4,-2,-2,-1,2
399221165990,2,-1,-2,5,1,1,-2,0
399221165990,-1,1,-10,-1,-4,-1,-1,2
399221180709,1,-4,20,4,-1,0,0,-1
399221180709,-1,2,-7,2,-1,-2,-2,0
399221188426,1,3,13,-3,1,1,1,-1
399221188426,-3,1,5,7,-1,-4,-1,-2
399221203922,-1,-2,4,-3,0,-2,-1,-2
399221203922,1,1,-3,5,1,-1,-1,0
399221204906,-4,0,-7,5,1,-2,-2,-2
399221204906,1,-3,-31,-14,-2,1,-2,-1
399221227954,-1,-4,-14,0,1,2,1,0
399221227954,-2,-3,-6,-9,-2,-2,-1,-5
399221229971,0,0,9,-1,-1,-2,-1,3
399221229971,0,-2,8,-1,-3,-1,-1,0
399221242787,-1,-5,-9,-5,-2,-1,-2,-5
399221242787,0,5,3,4,-1,-2,0,-1
399221248941,0,-3,-12,1,1,0,3,0
399221248941,-1,2,24,-2,-2,-3,-3,-3
399221264037,0,-1,6,-6,-2,-2,-2,2
399221264037,-4,-10,-11,7,1,-3,-2,0
399221264686,1,-4,18,0,0,1,-1,-2
399221264686,0,-13,-43,-11,2,0,1,1
399221278214,2,1,4,3,1,-1,2,2
399221278214,-3,-5,-40,-10,-1,-1,1,0
399221287680,-3,-15,4,0,-2,-3,0,-1
399221287680,-1,-8,16,3,1,2,2,-1
399221300811,0,-8,-16,-3,2,-3,-2,-1
399221300811,1,-6,10,-4,5,2,0,0
399221308248,1,-4,-5,1,0,1,-3,-1
399221308248,-1,-7,-2,-2,0,0,-2,-3
399221324075,-3,-9,3,-2,-1,-1,1,2
399221324075,0,-10,12,0,1,1,3,-1
399221324691,1,-4,14,-1,0,-3,0,-1
399221324691,-4,-19,-43,-5,0,-2,-1,-2
399221338435,2,-3,22,8,2,-1,-1,-1
399221338435,0,-7,8,-4,-1,-1,1,0
399221354487,-1,-8,-5,-1,0,0,1,0
399221354487,2,-5,14,-2,4,3,0,0
399221362391,1,-2,-13,4,6,1,2,-1
399221362391,-3,-14,-13,-3,-2,-3,0,-4
399221368267,0,-6,16,0,0,-1,0,-1
399221368267,1,-3,1,0,2,-1,0,1
399221383900,1,-7,9,1,0,-1,-1,-2
399221383900,1,-6,14,0,0,0,-1,0
399221384717,-2,-9,-20,-12,2,-2,2,0
399221384717,1,0,36,12,1,-2,-1,1
399221398405,-2,-14,-43,-12,-2,-1,0,-2
399221398405,0,-1,19,11,0,-2,-3,-1
399221405772,0,-11,-17,-3,3,5,1,-1
399221405772,-2,4,14,-2,-1,-2,-1,0
399221420793,-1,1,3,-5,-1,-1,-2,-1
399221420793,-1,-3,-20,1,-2,-2,-1,0
399221428336,0,0,-10,-3,-1,0,0,-1
399221428336,1,3,30,5,0,1,-2,-1
399221445431,-1,-10,-16,-14,-5,-2,-1,-1
399221445431,-1,-1,13,-9,2,2,3,2
399221446166,-2,-11,-65,0,-3,-3,-4,-4
399221446166,0,0,1,-3,-4,-3,0,-3
399221458395,1,4,9,2,-2,-3,-3,1
399221458395,-1,-1,1,-3,2,0,-2,-2
399221465848,-1,0,10,-5,-4,0,-1,-2
399221465848,-2,-6,-15,-1,0,0,-2,0
399221480970,1,5,10,6,-2,-1,-2,-3
399221480970,-3,-7,-11,-11,-2,0,0,-8
399221488327,-1,5,20,1,-1,3,-4,4
399221488327,-2,-3,3,4,1,0,-1,-1
399221503249,-3,-1,-13,-6,-1,-2,-2,-1
399221503249,0,3,20,6,3,1,0,-2
399221511530,-5,-3,-2,8,-5,-4,-4,-6
399221511530,0,-3,-12,-11,-3,0,0,-2
399221518226,1,4,15,4,0,0,0,1
399221518226,0,-3,-8,-13,-1,-2,-1,4
399221525780,0,2,12,7,0,-4,-1,0
399221525780,0,1,6,4,0,-4,-2,3
399221540895,0,3,-21,-3,-2,0,-1,-1
399221540895,0,10,-3,2,-5,-1,-4,0
399221548262,0,9,16,-2,-1,0,0,1
399221548262,-2,9,-18,-3,-4,-1,-1,-3
399221563250,-2,9,11,6,-3,-2,-1,-1
399221563250,0,9,-4,1,-3,0,-4,0
399221571441,-1,2,5,-1,-5,-2,0,-2
399221571441,-1,10,20,-10,-5,-3,0,0
399221578385,-4,1,-25,-1,1,6,2,3
399221578385,0,9,13,19,-1,1,-1,-1
399221585812,-2,-4,-14,-5,-2,-1,-1,-1
399221585812,0,-5,-13,-5,-1,-2,0,-1
399221600774,-1,0,13,-2,-3,-5,-2,-1
399221600774,1,-3,-2,-4,0,0,2,1
399221608293,0,1,3,5,2,1,-1,0
399221608293,0,1,1,3,-2,0,0,2
399221633601,-2,0,8,4,1,0,-3,-1
399221633601,0,-3,9,-6,-3,-1,-1,-1
399221634332,0,-6,-30,-8,0,0,0,-2
399221634332,-3,-2,-9,10,-2,-3,-5,-3
399221648553,1,4,4,0,2,2,0,1
399221648553,-1,-3,-2,-7,-1,-5,-2,0
399221649300,1,4,4,0,2,2,0,1
399221649300,-1,-3,-2,-7,-1,-5,-2,0
399221650823,1,4,9,2,-2,-3,-3,1
399221650823,-1,-1,1,-3,2,0,-2,-2
399221655952,-1,0,10,-5,-4,0,-1,-2
399221655952,-2,-6,-15,-1,0,0,-2,0
399221657587,1,5,10,6,-2,-1,-2,-3
399221657587,-3,-7,-11,-11,-2,0,0,-8
399221662352,0,1,-16,-2,-2,-5,-23,-2
399221662352,-2,-3,-7,9,-4,2,26,1
399221668232,0,1,4,-10,-1,15,11,3
399221668232,-3,0,-16,-6,-2,-2,-3,-4
399221683210,-2,3,28,-2,0,0,-1,0
399221683210,0,6,14,17,-1,-5,-9,-3
399221691511,-4,-14,-28,-26,-6,-8,-6,-2
399221691511,-1,7,47,31,3,2,3,-2
399221714473,0,-1,-12,-15,-7,-3,0,-3
399221714473,-1,0,11,2,0,0,-6,2
399221715082,1,10,30,7,8,5,6,-1
399221715082,-4,-20,-76,-33,-10,-8,-7,-4
399221722248,0,1,-41,9,-2,-5,-2,0
399221722248,-2,-2,5,-4,0,-1,-4,-5
399221728396,0,-5,-50,-15,1,8,12,4
399221728396,6,7,38,27,10,12,3,5
399221743399,-7,-14,-69,-19,-7,-9,-4,-8
399221743399,-5,-9,-40,-17,-1,-6,-9,-7
399221750843,4,1,7,9,0,-1,-8,8
399221750843,-6,-8,35,-28,-11,-8,-4,-7
399221766474,1,-4,-20,20,-3,-2,3,2
399221766474,0,14,-35,0,6,10,4,2
399221767217,-6,-21,-43,-3,0,-11,-5,-7
399221767217,5,8,28,14,2,-4,-12,3
399221780697,-2,3,9,-13,2,23,24,3
399221780697,1,-8,-3,11,-3,17,10,2
399221788334,-1,0,15,-26,-5,-21,-25,-5
399221788334,2,1,41,3,5,15,22,5
399221812887,-7,-22,-61,-29,-13,-10,0,-5
399221812887,-2,0,38,-9,7,-11,-8,-3
399221813669,0,-10,58,-9,-3,5,-8,-4
399221813669,-1,-2,-43,9,2,-10,-18,-3
399221834726,-1,5,30,38,-2,-8,30,2
399221834726,0,7,-7,-24,-9,9,2,3
399221835332,-3,-21,-6,-8,4,3,3,-2
399221835332,-1,11,-15,-2,-2,-3,5,-2
399221848901,0,8,22,-6,-2,3,-10,-8
399221848901,-2,-17,-3,14,5,3,-5,10
399221849711,1,-12,36,24,-10,-10,4,-4
399221849711,2,-9,-6,-10,-1,2,-11,-9
399221864697,-1,-4,9,2,1,-9,-20,6
399221864697,1,8,-4,-3,3,14,36,4
399221870840,-1,11,4,9,8,4,-1,-4
399221870840,-4,-4,-35,-34,-9,-11,-2,3
399221886524,3,15,53,-24,4,-6,-9,-3
399221886524,0,4,-3,35,-14,-18,-12,-7
399221887175,-1,-4,-20,-16,-1,-10,-20,-4
399221887175,2,11,-3,29,12,17,39,5
399221900728,-2,2,22,5,4,10,13,1
399221900728,-3,-7,6,-29,-14,-16,-14,-1
399221916439,2,-1,3,-5,14,12,22,0
399221916439,-6,-3,-45,12,-12,-17,-41,-6
399221923275,-1,4,-4,-20,-3,1,-9,-2
399221923275,1,1,18,11,2,5,5,3
399221939083,0,-5,87,-3,-7,-9,-4,2
399221939083,-5,2,1,37,9,6,9,-2
399221946485,3,14,25,8,3,-1,-6,0
399221946485,-1,-6,-32,-30,-8,-14,-16,-6
399221947239,-2,10,34,15,-2,-13,-34,1
399221947239,4,-3,-11,-19,1,30,46,11
399221970516,-2,-15,21,3,13,14,23,2
399221970516,-8,-13,19,34,-1,-15,-7,-11
399221971120,-4,2,-32,7,-2,0,0,4
399221971120,0,-2,16,3,2,-7,-12,2
399221983207,0,8,-17,-15,-13,-12,-20,-4
399221983207,2,7,-16,-7,5,5,4,2
399221990799,-2,-12,-17,12,4,2,13,-1
399221990799,-2,-7,-45,-33,-6,-9,-14,-4
399222014694,-2,11,25,19,-2,3,-1,0
399222014694,3,5,24,5,1,-2,3,-2
399222015360,-2,1,3,45,-3,4,6,-2
399222015360,-2,-5,13,-15,-8,-12,-10,-2
399222020880,-2,-6,-33,10,-9,-12,-13,0
399222020880,3,8,-18,7,12,8,4,2
399222028190,-7,-20,-6,-4,-21,-13,-5,-5
399222028190,2,1,24,-2,-1,7,5,0
399222043339,0,8,-14,-5,9,1,-6,-1
399222043339,-2,-6,27,13,-16,-17,-18,-4
399222051505,0,-3,-66,-16,4,24,29,2
399222051505,2,1,20,19,9,-1,-1,0
399222066339,-2,-7,11,-8,-10,0,-6,-6
399222066339,-5,-11,-15,-33,-3,-13,-22,-4
399222067253,7,12,13,-13,5,3,2,-2
399222067253,-8,-7,-37,8,-7,-7,-9,-2
399222080823,0,2,13,4,-2,-4,2,2
399222080823,-2,-9,17,0,5,7,3,1
399222088343,-2,-3,-15,10,-3,-1,0,0
399222088343,0,1,43,-18,-5,-7,-5,-5
399222103342,-6,1,-38,33,10,6,-3,-7
399222103342,0,11,1,3,2,0,2,3
399222111456,2,-1,-3,-14,4,1,-3,1
399222111456,1,-6,23,-44,11,6,5,6
399222126535,0,11,50,65,3,0,-1,1
399222126535,0,-6,-11,-4,-8,-5,2,-2
399222127196,-3,1,-10,-6,7,6,-5,-6
399222127196,-4,4,12,-12,-15,-10,1,-7
399222142240,1,-16,9,-13,0,-18,-21,-3
399222142240,-1,-2,-15,-33,-5,12,16,1
399222148248,7,0,4,-3,11,11,27,9
399222148248,-11,-6,11,62,0,-7,-12,-6
399222163321,0,-4,-13,-32,-6,-1,-4,0
399222163321,2,7,40,29,-1,-8,17,1
399222171597,-3,-26,-27,-43,-5,-11,-14,-2
399222171597,4,-2,21,-2,3,7,6,0
399222186549,-3,-4,-73,-23,1,2,8,4
399222186549,-4,-4,21,9,-4,-5,-16,-6
399222187133,-3,-1,8,18,-3,-3,-1,0
399222187133,0,0,-26,-17,2,0,-2,-2
399222200851,-2,9,43,38,4,6,0,1
399222200851,3,-12,-18,-45,-10,-15,-17,-1
399222216565,4,8,45,36,18,16,15,10
399222216565,0,-11,-57,-13,0,-10,-16,-4
399222223342,0,4,7,-16,-10,1,9,-3
399222223342,-2,-1,-26,-15,-2,4,2,0
399222231530,15,11,14,-20,3,-12,-26,-6
399222231530,-8,2,9,42,-2,-10,0,12
399222246522,16,0,-7,-24,4,6,27,5
399222246522,-30,-19,3,7,7,13,13,-1
399222247161,0,10,-9,-24,-25,-22,-21,-9
399222247161,6,13,26,-15,-4,1,-5,1
399222277050,-10,-30,-29,17,-2,-14,-13,-7
399222277050,6,14,-17,3,-1,1,-4,4
399222277839,-13,-3,11,3,-1,3,6,-6
399222277839,4,2,-10,-26,-6,-9,-8,-7
399222292219,-2,4,28,-3,-1,1,-2,1
399222292219,2,-1,1,25,4,1,-2,-5
399222292983,-8,-5,0,4,-11,-2,-3,-4
399222292983,0,5,-12,-20,-1,-2,0,-4
399222306422,-2,-14,-38,-13,-1,-2,-6,-1
399222306422,3,6,-3,-13,3,11,7,1
399222307243,1,4,-9,30,15,2,0,1
399222307243,-4,-13,27,16,-10,-4,-2,-3
399222320689,0,5,9,-22,-2,4,6,4
399222320689,2,-5,2,12,-8,-10,-6,-5
399222328493,1,-1,-18,16,-3,7,10,3
399222328493,0,-5,-8,-9,3,0,-2,0
399222368461,-7,-10,37,-4,-6,-2,-6,-9
399222368461,0,-14,-44,13,1,9,5,3
399222369106,2,0,-18,-33,2,3,4,-6
399222369106,-5,9,16,47,1,6,-7,-5
399222370796,5,7,19,-5,11,19,-6,3
399222370796,-3,-10,-12,11,2,-2,3,5
399222373889,-4,0,21,4,-15,-5,-3,-3
399222373889,-1,2,20,9,14,6,0,1
399222380728,2,4,-37,-9,2,-1,0,0
399222380728,2,5,16,-9,2,2,-2,-1
399222388289,-1,-4,-22,-8,14,13,11,8
399222388289,3,2,18,3,-7,-3,1,-2
399222403283,-3,7,16,13,-2,-3,3,2
399222403283,3,4,3,-15,12,3,-5,-1
399222418947,-8,-7,-3,17,-10,-11,-9,-4
399222418947,2,-1,-35,-20,5,0,-3,3
399222425847,1,6,16,2,-1,3,14,1
399222425847,1,-6,-25,-27,-9,-7,5,0
399222433987,-1,-5,35,31,-1,5,5,3
399222433987,2,-5,-36,-53,-1,4,4,-1
399222440796,-5,-9,-13,-1,-2,-9,-3,-1
399222440796,4,5,33,5,1,-8,-9,1
399222448173,-3,-4,-24,-29,-14,-12,-8,-5
399222448173,-4,-6,31,30,8,6,10,1
399222463301,4,-2,22,-15,-10,-5,-7,-1
399222463301,-3,1,-17,-16,-7,0,0,-2
399222471580,0,-2,-20,3,17,1,-5,-2
399222471580,1,-8,9,-15,-12,-1,-18,-1
399222502733,-3,-12,-50,-11,-3,-2,9,-2
399222502733,-1,21,2,11,4,15,8,0
399222503675,-1,-7,-21,-20,-9,-13,-10,3
399222503675,5,2,13,5,3,-4,-10,1
399222505233,-6,4,16,16,-2,12,16,-1
399222505233,2,-3,-10,12,5,-5,-8,-1
399222508286,-1,-1,-19,-23,-4,-5,-6,-3
399222508286,-2,-1,2,-1,-5,-7,-3,-4
399222523272,1,10,32,14,3,-11,-12,1
399222523272,-1,-9,5,1,-3,0,2,-2
399222538951,-2,-5,-5,-8,7,1,1,1
399222538951,-2,-9,2,18,-5,-5,10,0
399222554736,-1,2,-63,-31,-3,1,-1,-1
399222554736,-4,5,32,29,4,2,-6,-4
399222555340,-1,3,-10,1,-9,-7,-1,-3
399222555340,2,-6,-18,1,8,9,11,3
399222569049,0,2,7,-10,-6,-3,-7,1
399222569049,-3,-8,1,13,0,2,2,-2
399222569678,-4,-6,-13,1,-8,-7,-4,-1
399222569678,-1,6,9,-7,1,-1,0,1
399222583218,1,10,-33,0,-9,-2,3,0
399222583218,-4,-8,18,6,-5,-5,-4,-1
399222591468,3,-4,6,-2,21,9,10,3
399222591468,-4,0,-49,-31,-2,-3,-3,-3
399222605769,-4,0,36,30,-7,-13,-17,-7
399222605769,-2,3,14,-11,-2,-1,22,2
399222621472,-3,-6,16,11,0,14,10,1
399222621472,-3,4,4,-18,-6,-1,2,0
399222629999,-2,-11,13,-10,2,-1,-2,-1
399222629999,-2,3,-11,-1,-4,-10,-14,-4
399222644565,-2,0,14,-12,-5,1,-3,2
399222644565,1,8,0,32,0,-2,-1,-3
399222646314,-2,-12,-39,-5,4,3,-4,0
399222646314,0,6,0,-1,3,1,-6,-4
399222651491,3,11,28,-4,-1,-4,-5,-1
399222651491,-7,-19,-42,-11,-10,-4,5,1
399222674612,1,-2,12,-4,1,0,4,3
399222674612,0,-3,-18,-16,1,3,-8,-5
399222675389,2,-7,-6,-9,-11,-15,-4,2
399222675389,-1,2,30,28,-1,15,12,-1
399222697122,-3,16,24,30,2,-6,-3,0
399222697122,2,-10,-56,-30,0,-2,-10,-3
399222697882,-2,2,1,4,-10,-3,0,-2
399222697882,0,-1,7,-8,3,-3,-3,-2
399222703243,2,-4,3,2,2,7,8,4
399222703243,0,8,5,-3,-6,-12,-22,-3
399222711597,-1,-3,7,-3,19,9,6,1
399222711597,0,12,-12,36,9,0,6,-2
399222725815,4,-15,25,-7,-9,-6,-8,5
399222725815,-8,-9,7,12,-2,-5,2,2
399222741524,-1,-6,-23,1,-2,-3,-6,-4
399222741524,-1,-4,7,-17,-4,-2,-1,2
399222748789,-1,-4,2,-8,-4,-2,-7,-6
399222748789,-1,-3,-8,-2,-3,0,6,1
399222749635,0,4,0,-1,-9,-6,-6,-3
399222749635,9,17,7,1,7,6,0,6
399222772156,-6,-6,-12,27,-6,-8,-4,-6
399222772156,1,-12,-24,-22,3,6,13,6
399222772824,1,4,39,15,2,3,5,3
399222772824,5,-7,-45,-34,3,0,1,4
399222794492,-2,-2,-1,-10,3,4,2,-1
399222794492,0,2,17,16,4,-1,1,-3
399222795108,1,-3,1,-5,-5,4,0,-1
399222795108,-5,-4,12,2,-7,-4,-5,-7
399222816898,-5,-6,-1,-8,-11,-9,-9,-9
399222816898,1,-7,4,-4,15,11,9,6
399222817700,4,-1,-20,-22,-2,-24,-17,-7
399222817700,-9,-9,-42,41,14,34,21,3
399222832050,2,-8,-17,3,1,6,11,0
399222832050,4,6,7,-20,-1,7,6,0
399222832819,-3,-9,14,16,0,-8,-14,-4
399222832819,-1,-1,14,-4,-6,-14,-9,-4
399222845774,2,5,-2,-17,-1,-1,3,1
399222845774,-6,-10,-2,-1,-16,-11,-15,-8
399222854131,-2,-9,-5,3,16,12,10,3
399222854131,-5,-17,12,3,-3,-6,-6,-3
399222868977,-1,-2,-10,-2,0,1,-3,-6
399222868977,-2,-3,7,2,-7,-3,0,-3
399222869792,-2,-1,-5,3,-7,5,-1,-3
399222869792,-1,-5,3,-16,-12,-8,-1,-1
399222883334,-1,8,9,4,13,-1,-9,0
399222883334,-1,-9,-1,3,-4,-2,15,1
399222891583,0,0,-11,7,-1,3,4,-1
399222891583,-4,-10,-26,-17,-3,-11,-9,-4
399222905894,3,16,31,-16,-9,-2,-2,3
399222905894,-1,-10,-23,1,22,-9,-21,-2
399222921506,-8,6,8,24,-5,-1,14,-1
399222921506,4,0,21,-17,-2,16,8,2
399222929082,-2,-1,4,43,2,-8,-10,-10
399222929082,2,8,32,-17,-11,6,5,1
399222929655,-1,8,-25,-6,4,-9,-17,-1
399222929655,-3,0,20,15,-7,-11,-8,-1
399222943326,-1,2,-2,-25,-2,6,6,0
399222943326,1,-3,-11,5,-2,-2,-3,-1
399222951453,1,5,38,8,0,0,3,0
399222951453,-1,11,25,-5,-5,-9,-14,-6
399222974670,-1,-13,-43,-21,-5,12,21,7
399222974670,-1,-1,15,16,5,1,-4,-1
399222975498,-2,5,16,11,3,-5,-5,1
399222975498,0,-3,-1,-9,-6,1,18,1
399222988974,3,-7,6,2,1,-6,-7,2
399222988974,1,-1,-10,-19,0,-2,2,2
399222989681,-2,-1,-23,6,-7,4,4,-2
399222989681,-3,0,-28,-11,0,-10,-14,-5
399223004643,1,1,6,10,-5,-8,-4,-1
399223004643,-2,-19,13,-6,-8,-3,3,-1
399223011373,0,-4,-13,-3,1,0,-9,-2
399223011373,4,5,33,12,6,4,2,1
399223026087,-3,-4,-52,-37,-8,-1,1,-3
399223026087,0,1,-7,16,2,0,-1,0
399223033829,-1,1,4,-9,-3,-4,-5,-3
399223033829,-1,-3,-16,-8,-3,-4,11,-1
399223048938,2,3,42,7,0,2,3,0
399223048938,-3,9,-4,8,-6,-7,-10,-3
399223049661,-2,-4,-21,-6,5,9,3,1
399223049661,2,6,17,2,-2,-2,5,3
399223072099,1,-1,-3,1,17,-3,-13,-1
399223072099,0,1,9,6,-3,7,28,2
399223072904,1,-10,8,-6,-10,-6,-10,-5
399223072904,-9,8,-28,7,5,-13,-27,-5
399223085813,13,4,64,33,4,30,21,2
399223085813,-5,-6,-27,-7,-6,-10,-11,-4
399223101499,2,-2,3,-16,4,3,9,2
399223101499,0,1,25,22,5,3,0,0
399223108923,-9,-8,-67,-14,-3,-17,-16,-7
399223108923,-4,-4,9,-5,-4,0,-5,-2
399223109714,4,3,20,6,-2,1,2,-2
399223109714,3,-3,-18,-16,-3,2,0,-2
399223124802,-7,-9,4,9,2,-3,-3,0
399223124802,5,-2,31,-5,1,2,2,1
399223131485,-4,-3,-12,-4,-8,-10,-9,-2
399223131485,1,-5,6,-6,0,15,9,5
399223145824,1,0,-14,-13,2,2,6,5
399223145824,-4,-3,3,13,-2,-6,0,-3
399223154015,2,4,9,-2,11,7,-1,-1
399223154015,-2,-8,-49,-45,-5,-8,-17,-6
399223169014,-6,-7,27,29,-17,-14,-4,-6
399223169014,3,-5,-41,-40,14,13,-4,1
399223169666,-7,-5,-31,-2,-9,-4,1,-5
399223169666,2,-2,8,2,-9,-2,3,3
399223184709,-5,1,-2,-13,7,0,-1,-2
399223184709,1,-5,-13,-10,-6,-8,-6,-1
399223198974,-3,-2,11,3,0,2,0,2
399223198974,0,12,-13,15,-5,-4,7,-2
399223205804,-3,-6,10,-13,0,3,0,0
399223205804,0,1,5,15,-1,-3,0,0
399223214001,3,7,9,2,0,12,13,1
399223214001,-8,-24,-57,-19,5,-18,-26,-7
399223229518,0,13,40,2,-4,6,-1,-2
399223229518,0,-5,-52,5,5,5,8,1
399223230072,-3,1,4,-1,-11,-27,-32,-8
399223230072,0,-11,-25,-15,0,36,25,6
399223252141,-1,-7,-12,-14,3,-7,-4,3
399223252141,-3,-2,7,2,-4,7,2,-3
399223252954,3,-9,10,-4,3,-2,-1,1
399223252954,0,6,35,24,3,-8,-2,-2
399223265772,-4,-16,-11,-10,-2,-5,0,-3
399223265772,0,9,5,15,-7,-5,-9,-4
399223273860,0,-11,-11,-16,-4,2,8,2
399223273860,3,3,6,-10,9,4,5,3
399223306701,0,5,5,35,-8,-4,1,-3
399223306701,-1,-5,12,-7,1,-7,-9,-2
399223307504,-4,5,6,3,0,4,9,-1
399223307504,0,-1,34,-2,-7,-1,4,0
399223311201,0,-2,-27,-12,-15,-16,-20,-13
399223311201,0,-32,19,-17,18,7,0,-3
399223319061,-4,-18,-14,22,5,3,3,-3
399223319061,0,-26,25,24,-9,-15,-16,-5
399223325718,-3,-30,-16,-14,0,-1,15,2
399223325718,0,-30,8,-14,3,16,10,2
399223333826,0,-12,27,0,-1,1,3,-1
399223333826,-3,-14,-25,-11,-3,-5,0,-5
399223348849,1,-4,1,-10,10,-12,-11,-1
399223348849,-1,-6,5,19,0,11,11,1
399223349623,-4,-22,-3,-9,1,0,2,-1
399223349623,-4,-5,-16,1,-8,-8,-9,-6
399223372215,3,12,0,13,4,5,3,3
399223372215,-1,4,9,5,2,-12,-8,-3
399223372849,1,1,-10,-4,-3,-3,-3,-3
399223372849,2,5,2,-10,3,8,3,4
399223385705,-2,-2,-4,-9,-10,-5,-4,-2
399223385705,-3,1,17,17,3,-11,-3,-4
399223402019,0,16,-4,-7,-9,4,0,-4
399223402019,0,6,-17,-13,6,-2,7,1
399223408232,0,7,10,-2,5,4,2,1
399223408232,-2,10,-14,-5,-25,-12,-11,-7
399223416581,0,7,-6,16,26,5,0,3
399223416581,-2,-3,-38,-4,-1,-2,0,-2
399223439465,2,3,9,-10,-1,14,16,3
399223439465,2,8,-28,-24,-1,-4,-2,1
399223440331,-2,15,4,16,-13,-8,-4,-3
399223440331,0,13,32,18,1,-5,-8,-2
399223445813,-2,6,-32,-2,6,6,-3,-2
399223445813,-3,3,-15,-9,-9,-5,-4,-4
399223453998,0,3,5,-5,-9,-2,1,-1
399223453998,2,4,23,5,5,0,-5,0
399223468262,-3,2,-25,-5,-9,-6,-3,-5
399223468262,0,12,7,-5,-4,0,3,4
399223476557,0,1,-6,-11,-8,-9,-6,1
399223476557,-2,15,24,3,-2,16,15,1
399223483314,-3,-2,-25,-12,-9,-3,-3,2
399223483314,2,8,19,6,15,-1,-3,-1
399223491465,-2,2,-19,4,-8,-3,1,0
399223491465,-2,11,-1,-23,-9,-9,-12,-5
399223505757,0,-6,5,38,6,6,-3,2
399223505757,-3,8,-1,6,-8,-9,-7,-5
399223514781,3,14,-1,-9,2,-1,-6,-4
399223514781,1,5,9,-4,0,9,10,2
399223528126,-2,4,-13,-2,-4,-5,-7,-3
399223528126,0,6,8,7,-2,1,1,1
399223537136,0,-6,-13,-11,3,2,0,1
399223537136,-2,12,18,25,-5,-1,-1,-1
399223552160,1,12,16,5,8,-5,-6,0
399223552160,-2,3,5,1,-5,-3,-3,1
399223553700,-2,-1,-15,-16,-7,9,12,-5
399223553700,-1,-1,16,5,-1,-9,-12,-2
399223565729,-1,10,24,-10,-5,-2,-11,-2
399223565729,-3,5,-4,4,-10,-6,0,1
399223574667,-3,-4,-2,-2,12,6,-1,2
399223574667,0,-8,-6,0,4,6,10,1
399223588280,-1,0,-24,-32,-6,-31,-33,-6
399223588280,1,15,7,21,1,44,37,6
399223597168,3,9,-11,-4,-3,-12,-13,-1
399223597168,-1,-3,-4,-11,-5,-7,-4,-3
399223612080,-1,-6,-23,-19,-3,9,10,5
399223612080,-2,5,11,2,8,-11,-11,-3
399223613743,-4,28,15,51,-9,0,3,0
399223613743,1,-1,18,0,10,5,2,1
399223625629,1,-9,-65,0,-4,0,9,1
399223625629,-2,-8,29,-11,-2,-5,-6,-2
399223636308,-1,-3,-7,8,7,5,3,0
399223636308,-5,-11,-16,-10,-29,-18,-9,-2
399223648262,0,11,48,20,20,1,-16,-3
399223648262,2,-4,-40,34,15,-4,21,11
399223657308,1,-18,-2,-54,-3,20,34,-5
399223657308,-3,0,-16,25,-7,-9,-13,-2
399223679634,5,-5,34,-20,-4,2,-3,-7
399223679634,-19,4,-33,-5,-7,7,-9,2
399223681099,16,4,14,-10,-3,-12,-4,-2
399223681099,-4,-6,-9,-3,7,4,7,-4
399223685616,-7,-4,12,21,-7,3,1,0
399223685616,4,-7,18,-17,-3,-18,-15,-9
399223694822,-6,-1,-36,-3,-6,-5,-10,-1
399223694822,0,7,1,-20,-3,3,-4,1
399223708302,-4,8,2,1,-1,7,3,-3
399223708302,2,-1,16,23,14,1,0,2
399223724614,-6,-15,-17,-4,-7,-5,-3,-1
399223724614,4,3,-36,-18,5,3,-4,3
399223739580,-3,-4,18,53,-9,0,14,0
399223739580,2,-2,-31,-60,-3,3,1,-4
399223741221,-2,7,35,4,4,0,-12,0
399223741221,-3,3,4,0,7,-7,-18,-3
399223745689,0,1,13,1,-5,7,24,7
399223745689,1,-1,-9,-4,-8,-3,-13,-4
399223754650,-2,6,-8,7,5,12,20,5
399223754650,3,1,16,-7,-4,-6,-7,-3
399223768379,-1,11,12,-7,0,1,1,-1
399223768379,2,-4,14,7,-1,-3,-8,-1
399223777288,-4,-4,8,1,-1,-11,-12,-1
399223777288,-3,-2,1,-15,-2,1,4,-1
399223792554,0,-3,4,-5,4,2,-1,-2
399223792554,0,5,-2,4,-2,-10,-6,-5
399223806393,2,3,0,-10,-3,5,-2,2
399223806393,-1,-2,-14,20,6,5,9,2
399223807190,0,-1,24,15,1,-5,-3,-2
399223807190,-1,-9,-17,-20,-4,-1,2,-1
399223814705,-4,-4,11,5,-7,-3,-5,-2
399223814705,0,4,-8,14,2,1,1,-1
399223828212,-2,3,-9,-15,2,-2,-3,-1
399223828212,1,-3,2,22,-4,-3,2,-1
399223837175,-2,-1,20,13,0,-4,-5,-3
399223837175,1,1,5,2,-8,-1,3,0
399223852759,-2,1,-11,-7,0,2,-1,2
399223852759,2,0,-7,4,1,1,-1,-3
399223854231,-1,-10,2,-11,-4,-3,-5,-1
399223854231,-2,4,0,-1,4,1,2,1
399223865839,-2,-4,-1,-2,1,0,0,-2
399223865839,-2,-6,-7,-11,-2,-1,-1,-3
399223874604,-1,-12,-1,0,2,-3,-3,-1
399223874604,-1,25,2,8,1,-2,-1,-1
399223888318,1,-4,-5,6,1,0,0,1
399223888318,-6,0,5,-6,-5,-3,-3,-4
399223897185,1,-4,-16,-7,-1,-1,-2,0
399223897185,-5,-10,5,5,-2,1,0,0
399223912141,0,9,-14,-14,-3,-2,-3,-1
399223912141,0,-1,3,1,0,0,1,0
399223919860,-3,-2,-7,2,3,-3,-3,-2
399223919860,2,-8,10,-1,-2,-1,1,-1
399223925787,-5,-1,-7,-3,0,-2,-2,-4
399223925787,-1,-12,-11,-2,-1,2,2,1
399223942201,-1,6,-8,2,3,0,-2,1
399223942201,-1,4,0,-1,-5,-1,-1,0
399223948306,1,-9,6,-2,0,0,0,1
399223948306,2,7,-3,1,1,-1,0,0
399223957150,0,-6,3,-2,-3,-1,-1,0
399223957150,-3,-3,-11,-1,-1,-1,0,1
399223970781,-1,-14,-11,-4,-1,0,1,-1
399223970781,1,-5,-10,-4,-2,1,-2,-1
399223979697,-1,22,0,0,-2,-4,-2,-3
399223979697,-6,-5,-6,-8,-2,-3,-2,-4
399223994568,1,-5,-17,-2,-1,-2,-2,-2
399223994568,4,5,-2,4,2,1,0,1
399223996110,-1,7,4,-1,-1,-2,-3,-1
399223996110,0,-3,-3,-2,1,1,0,1
399224008306,-3,12,7,-6,1,-1,0,-2
399224008306,-4,2,-26,0,-5,-4,1,-1
399224017173,-1,-2,3,8,6,3,2,1
399224017173,1,9,-7,-3,0,2,5,1
399224030835,1,23,34,5,-2,0,1,1
399224030835,-2,3,-25,-11,-11,-5,-1,-1
399224039596,-5,-15,-10,4,3,0,-1,-2
399224039596,1,10,1,3,2,-2,-2,-2
399224045634,-2,1,1,6,-3,-2,0,-3
399224045634,-1,-7,10,-5,0,1,0,0
399224054610,2,11,-3,-6,-8,-5,-3,-3
399224054610,2,-20,-9,-9,0,-2,-2,-1
399224068282,-2,-8,5,-3,-5,-2,-1,-1
399224068282,-1,-9,22,6,2,1,-1,-3
399224077143,-3,-38,-11,-9,1,-2,-1,0
399224077143,-1,-9,10,5,2,-1,-1,-1
399224090860,-1,-14,-1,2,1,1,-1,1
399224090860,0,6,4,2,2,1,1,0
399224099644,1,3,2,0,-1,-2,0,-1
399224099644,-5,-30,17,4,-5,-3,0,-3
399224105752,2,-4,-3,3,3,-1,0,0
399224105752,-1,-7,-4,-6,-2,-2,-2,-1
399224114628,0,8,-8,0,-2,-3,-2,-2
399224114628,-3,15,20,5,-2,-3,-4,-2
399224128175,-4,-2,-9,-10,2,-2,-3,-2
399224128175,-2,-7,1,-6,-4,-1,-1,-2
399224144679,-2,-7,-7,7,7,2,-1,-1
399224144679,2,2,-6,5,1,1,1,-1
399224150620,-1,5,-1,-10,-12,-1,0,1
399224150620,0,-6,4,14,14,3,0,1
399224159764,3,17,29,-2,-9,-1,0,5
399224159764,-5,-6,-33,-8,-3,-3,-3,-8
399224165662,-6,-21,-15,-4,-2,-1,-5,-2
399224165662,0,3,4,-2,-6,-3,-2,0
399224174586,-1,4,-3,3,0,-2,1,1
399224174586,-1,-1,0,-3,2,-1,1,2
399224188128,1,-6,-1,-6,-3,-2,1,0
399224188128,-3,10,-11,1,2,-2,-3,-3
399224203258,-4,-5,4,-9,-2,0,-2,-2
399224203258,2,-12,1,3,-5,-3,-2,-2
399224210804,-1,9,-19,-9,3,1,-1,0
399224210804,0,6,22,11,-5,-3,-1,2
399224219592,1,0,-1,6,1,0,2,0
399224219592,-2,-2,-11,-3,-1,1,2,-1
399224225766,1,0,-2,8,1,0,2,2
399224225766,-3,-7,-2,-9,-3,0,-3,-7
399224234630,-1,7,-6,-2,-5,-2,1,-1
399224234630,-3,-2,-5,-12,-2,-3,-4,-2
399224248199,-2,-7,9,3,-5,-1,-1,-1
399224248199,0,4,9,-6,-3,2,0,2
399224257135,1,-8,-4,10,20,0,-2,-1
399224257135,2,13,6,0,-2,-2,1,-1
399224270795,-6,0,-1,0,1,-2,-2,-2
399224270795,4,-1,-7,-11,-8,-1,0,1
399224279631,0,4,-7,-5,-14,0,11,4
399224279631,-3,-11,6,8,15,1,-16,-11
399224285694,-1,-5,0,1,8,-1,-19,-1
399224285694,-2,0,1,16,-1,0,0,1
399224294722,-2,6,-1,-26,-8,-1,-1,-1
399224294722,-3,2,-5,-35,-19,2,15,4
399224308124,7,-8,2,21,17,0,2,-1
399224308124,-9,9,-6,-4,1,-4,-1,-3
399224317132,0,-8,-2,-9,-11,-3,-17,-8
399224317132,-2,14,14,-3,-19,-4,3,2
399224331344,3,-3,-1,0,16,8,5,-4
399224331344,0,-7,-8,0,-5,-4,12,9
399224338226,2,-8,8,-1,-15,-2,-11,-19
399224338226,0,4,-7,29,19,3,0,7
399224345669,-3,-6,7,-5,-8,-7,-19,0
399224345669,4,3,1,7,-1,0,4,10
399224354595,-14,-12,-6,5,9,0,0,-6
399224354595,5,2,-9,-19,-8,-1,1,-2
399224368314,2,10,3,25,19,2,-9,-2
399224368314,-3,-21,-15,-2,2,0,2,2
399224377159,3,6,12,-6,-12,-4,-1,2
399224377159,0,-8,3,-1,6,0,1,2
399224391345,-8,-3,2,-4,-8,-2,12,2
399224391345,3,0,3,-19,-5,-1,-7,-8
399224398308,2,4,-4,-1,9,-1,1,4
399224398308,-8,-20,-33,4,2,-1,-5,-9
399224405762,0,1,10,-10,-14,-1,7,-2
399224405762,-4,-6,17,13,6,-3,-11,-9
399224414663,0,-4,-18,1,0,0,1,-2
399224414663,2,1,4,6,4,2,3,9
399224428130,6,-10,-34,-22,-13,-3,3,4
399224428130,-5,6,53,2,1,0,-4,-14
399224437283,2,-3,-13,6,10,3,6,-5
399224437283,-2,2,-7,-6,-8,-5,-12,-24
399224451403,-6,-3,-6,18,3,4,10,20
399224451403,10,-2,4,-11,-4,-2,-7,-33
399224458340,2,8,-12,31,6,2,2,21
399224458340,4,-7,5,-19,-2,1,4,17
399224465632,-23,4,6,-9,-6,-3,4,23
399224465632,12,6,-23,-8,0,0,-2,3
399224474640,-7,-3,3,8,-4,-1,0,15
399224474640,7,11,-27,6,4,0,-3,-18
399224488113,-15,-1,27,10,-5,-3,3,27
399224488113,1,9,-11,10,6,2,1,3
399224497153,-3,-36,7,-22,-8,-5,-5,-11
399224497153,-2,7,16,9,4,1,2,13
399224511331,9,3,5,7,5,-1,0,-22
399224511331,-4,-6,-14,-11,-10,-2,-3,6
399224518261,-1,4,-4,11,9,4,1,-17
399224518261,-3,-11,30,-11,-10,-4,0,5
399224534519,3,-2,2,-8,-5,-2,-3,-16
399224534519,-5,-16,-6,14,5,0,-1,0
399224536111,1,16,0,4,8,1,1,13
399224536111,-1,-3,2,-7,-2,-2,0,-1
399224548128,5,5,-7,3,-6,-2,-2,-12
399224548128,-2,-6,-11,-27,-27,-6,-2,9
399224557094,-1,1,7,-13,-1,5,16,-4
399224557094,2,-3,14,32,34,1,-18,0
399224571372,2,-15,-4,11,10,0,-1,-12
399224571372,5,11,-9,-7,-21,-6,-2,7
399224578291,12,15,0,-24,-7,13,32,18
399224578291,-7,5,8,14,3,0,0,-21
399224594651,13,2,5,-1,-13,-9,-33,-6
399224594651,-15,-4,-18,-21,-20,-13,-10,4
399224596152,-9,-6,-1,-2,-16,-13,-12,-3
399224596152,3,5,-4,-7,11,9,19,13
399224608316,-5,-3,-13,-19,-7,-1,7,-14
399224608316,1,1,10,8,7,7,8,2
399224617113,0,5,-5,4,-1,-2,-6,-7
399224617113,-8,-4,12,4,5,-3,-3,-1
399224631552,-1,-4,-13,-4,-2,-1,2,-1
399224631552,-2,-5,24,-2,13,3,3,-3
399224638299,1,-5,-1,3,2,-5,-7,1
399224638299,0,-7,0,-3,-8,-1,0,-2
399224654695,5,4,0,-16,-7,-3,2,2
399224654695,0,3,-1,12,15,4,1,3
399224656129,-4,5,-14,-11,2,-5,-12,-9
399224656129,0,0,29,4,-24,-6,-3,1
399224668167,1,6,-8,15,7,4,4,-1
399224668167,-3,-13,-32,-32,5,2,-1,-1
399224677332,-3,3,41,33,5,-3,-7,-6
399224677332,3,0,-48,-24,-9,4,5,-5
399224691327,-17,-9,-34,-16,-2,-2,-5,-7
399224691327,14,1,4,33,11,3,5,24
399224698205,3,-12,-8,-36,-9,-4,-7,-20
399224698205,-1,7,-1,19,0,-1,-2,5
399224714457,-9,-9,-32,-28,-5,-3,3,18
399224714457,6,0,54,31,2,1,3,-25
399224716060,15,9,-4,-2,2,2,-2,48
399224716060,-1,-11,-1,5,-3,-3,-8,-43
399224728238,7,4,9,12,3,-2,1,-9
399224728238,-11,-10,-25,-25,3,0,-4,40
399224737136,4,0,27,0,-4,1,6,13
399224737136,-1,-7,-13,-2,-1,-3,-10,-51
399224751473,7,8,38,12,0,-1,3,21
399224751473,-11,-10,-24,-6,-2,-5,-6,-30
399224758205,-11,-4,-46,3,5,-2,-13,30
399224758205,-10,-1,-52,-7,-10,-3,15,1
399224774567,0,2,47,-2,0,6,5,-17
399224774567,-4,3,12,31,3,-4,-2,14
399224776076,-8,-7,-24,-18,2,2,-4,-22
399224776076,-6,-3,7,7,-6,-10,-4,62
399224788185,6,-9,0,-2,-2,-4,-7,-62
399224788185,2,4,-9,5,5,5,4,6
399224797090,-4,-5,66,-5,-8,-7,-2,-14
399224797090,-1,-1,-52,-20,-1,0,-2,6
399224811493,-2,0,-2,-1,1,1,4,14
399224811493,0,-8,-11,-10,-4,-4,-2,-9
399224818260,-1,2,-8,14,3,-2,-2,-19
399224818260,2,5,20,23,-1,2,3,12
399224834491,-4,-15,-29,-32,-4,1,0,9
399224834491,3,3,-7,3,0,0,-2,-9
399224836106,-2,-2,-24,3,-4,-4,1,1
399224836106,1,-3,13,-15,-2,1,0,3
399224848157,0,10,34,28,0,-2,-3,6
399224848157,-3,2,-11,-15,8,2,0,-9
399224857125,-1,-5,-1,-5,-1,-3,-1,-7
399224857125,4,5,21,-1,1,2,-2,0
399224871338,-8,-9,3,-8,-4,-5,-4,15
399224871338,-2,2,2,14,-2,0,1,0
399224878238,-2,0,-22,-7,0,2,-1,-5
399224878238,4,-1,2,-1,2,1,-2,-1
399224894453,-2,3,1,-7,-1,-4,0,6
399224894453,-3,-1,65,-6,-6,2,-4,-5
399224896070,-1,-8,-71,17,3,3,9,-5
399224896070,-1,-1,17,-15,-4,-1,-1,-2
399224916937,1,4,3,15,-1,-4,-5,-4
399224916937,-2,-1,19,-4,1,-6,-1,-2
399224918741,1,-3,4,-3,-2,2,-2,-5
399224918741,-2,0,0,4,-3,0,-1,-4
399224931262,-7,-5,-14,-7,1,3,6,13
399224931262,11,7,-14,12,2,-1,0,-6
399224938268,-2,-2,21,-10,-6,-5,-4,-2
399224938268,-1,-1,2,-5,-2,0,1,1
399224962675,3,6,-2,-14,2,5,-2,-3
399224962675,-9,-10,-30,16,-4,-5,-8,-3
399224964235,0,2,13,-4,-3,-5,4,1
399224964235,5,1,14,3,1,1,1,1
399224968090,5,-4,-19,-18,-1,-1,-3,-3
399224968090,-1,3,22,11,-4,-6,-8,-6
399224977158,-2,-1,-10,5,-1,-6,5,2
399224977158,-5,-5,4,-6,0,10,16,2
399224991516,0,-1,13,14,4,0,-10,-3
399224991516,-2,-7,-30,-19,-4,-2,7,-4
399224998265,-3,3,18,-3,-3,-6,-13,-5
399224998265,2,2,18,14,1,-3,-2,5
399225014586,-1,-6,-63,-14,-1,-1,2,-2
399225014586,-1,-1,-3,1,-1,1,-3,0
399225016153,1,4,2,-8,-1,2,-4,-1
399225016153,-1,-6,5,-12,2,-1,-4,3
399225028628,-4,-8,-11,26,-3,-5,-2,-7
399225028628,4,5,49,3,0,-1,1,6
399225037113,-2,-11,-19,-6,-8,0,0,-5
399225037113,-6,3,-2,-8,-2,-3,-2,2
399225051311,-2,-5,-8,4,1,-3,1,0
399225051311,-4,0,14,-1,1,4,1,-3
399225058197,12,-11,-56,-2,-2,2,-1,-8
399225058197,-6,2,22,7,-1,-2,-7,4
399225074467,0,-3,14,-8,-1,-3,-3,-5
399225074467,2,-2,-17,1,-1,3,9,6
399225076096,-4,3,19,1,5,4,-3,-5
399225076096,3,3,40,-3,-1,-1,-4,-1
399225088222,0,-3,14,5,-1,6,1,3
399225088222,-2,-4,19,-7,-2,-4,-10,-5
399225097121,1,2,-7,4,2,1,15,4
399225097121,1,0,25,-5,0,-2,-1,-1
399225111989,1,9,41,7,0,-3,-2,0
399225111989,-4,-18,-117,-35,-6,-7,-4,-4
399225125689,-5,16,106,61,13,3,-4,3
399225125689,0,-12,-55,0,-11,-11,-8,-4
399225134292,2,2,3,-12,0,2,5,3
399225134292,0,-9,-29,-15,0,8,5,-2
399225142176,-1,2,-4,-8,-3,-3,-6,1
399225142176,-1,1,-7,3,0,-2,-1,-2
399225157054,-2,-8,33,5,2,-2,-4,-2
399225157054,1,6,-9,8,-2,-4,-4,2
399225158610,-2,-3,15,-5,-3,5,8,0
399225158610,2,0,10,-4,1,2,-5,0
399225170774,1,-4,-13,-15,-1,-3,-1,1
399225170774,-5,0,21,24,-1,-4,-4,-4
399225179569,2,8,-9,10,11,6,5,1
399225179569,-4,-5,-12,9,-5,-8,-10,-9
399225194542,0,-5,-22,-9,0,2,-8,9
399225194542,0,0,21,-6,6,4,7,0
399225196109,-4,-8,-20,-12,-4,3,7,1
399225196109,0,-3,-8,-5,1,-2,1,-2
399225217107,1,3,-8,8,-1,-2,-10,-4
399225217107,-2,-5,-7,-4,-4,2,6,-1
399225218634,0,-9,-20,1,-2,-5,-9,1
399225218634,-4,-9,-14,-11,-4,-7,-5,-5
399225230562,3,2,-12,0,1,4,8,-2
399225230562,-8,-6,35,-3,-6,-9,-20,-5
399225239607,4,-1,-6,-13,-7,4,11,1
399225239607,-2,0,-7,2,4,8,7,3
399225253884,-1,6,-1,3,-2,-2,2,-6
399225253884,4,3,9,-7,0,-1,4,2
399225268109,-5,-10,-29,-16,-11,-14,-16,-4
399225268109,1,1,25,22,0,0,1,2
399225277041,-2,3,7,1,-4,-4,2,-4
399225277041,-3,1,11,0,3,4,5,0
399225278578,-4,-4,-8,-10,-2,-6,-8,-2
399225278578,4,-3,-38,-22,0,1,3,0
399225290743,-1,0,60,9,-2,-9,-13,-3
399225290743,-1,-7,-19,10,3,1,5,-7
399225299578,-3,4,-6,-11,-1,4,-4,5
399225299578,-3,-9,-31,-2,-5,-2,5,-1
399225313928,-3,1,-7,4,-3,-1,-7,-6
399225313928,3,-1,-23,-16,-2,-2,-2,-1
399225320763,0,4,23,6,-4,-6,0,-5
399225320763,-1,-3,-7,2,1,-1,-3,0
399225344548,-4,-12,-20,-10,-3,-4,0,0
399225344548,1,1,-8,2,5,3,4,4
399225346081,-1,0,13,-19,0,-4,0,-2
399225346081,0,3,-1,4,-4,-2,-2,0
399225351349,-2,-4,-13,-5,2,5,6,-2
399225351349,-1,1,11,2,0,-1,-4,-2
399225358284,-1,-2,11,12,11,2,-4,1
399225358284,1,-5,-49,-33,-2,-3,-1,-3
399225373957,0,1,-2,14,5,5,7,2
399225373957,-3,-6,1,-9,0,-1,0,1
399225380566,-1,4,3,3,-5,-2,-1,-1
399225380566,-2,-2,-4,19,3,2,1,1
399225388107,0,1,-14,-14,-3,-6,-3,-3
399225388107,-7,-8,-31,-9,-3,3,13,2
399225397094,0,-8,7,-1,0,-2,8,7
399225397094,-1,1,24,-6,1,-3,-6,-3
399225419653,0,2,10,4,-4,-3,-5,-3
399225419653,-2,-2,-35,7,-4,-8,-6,0
399225421137,-1,0,54,17,3,1,-5,-4
399225421137,-4,8,-3,-3,-2,-1,-3,-2
399225433912,-2,-7,-1,-2,0,4,11,3
399225433912,2,-1,2,-7,0,-2,-8,-2
